2040
2029
2015
1999
1980
1960
1939
1919
1899
1877
1860
1851
1844
1841
1845
1858
1882
1920
1972
2038
2121
2221
2340
2473
2611
2742
2851
2926
2962
2956
2906
2808
2667
2489
2290
2085
1889
1715
1570
1457
1378
1334
1322
1335
1367
1414
1470
1530
1592
1652
1710
1760
1803
1838
1865
1885
1898
1907
1913
1916
1918
1919
1920
1921
1922
1924
1927
1930
1934
1939
1943
1947
1951
1954
1957
1959
1961
1964
1966
1967
1969
1972
1973
1975
1977
1979
1963
1941
1922
1915
1922
1943
1970
1995
2011
2012
2016
2021
2026
2029
2033
2036
2039
2041
2042
2042
2044
2044
2045
2046
2045
2045
2045
2046
2046
2047
2047
2048
2048
2050
2052
2055
2058
2061
2063
2067
2070
2072
2075
2077
2080
2083
2085
2088
2091
2093
2095
2097
2101
2103
2105
2107
2108
2110
2112
2116
2118
2121
2122
2125
2127
2129
2130
2131
2131
2130
2128
2126
2123
2117
2112
2104
2097
2089
2081
2072
2062
2051
2040
2030
2019
2018
2003
1976
1943
1913
1897
1896
1910
1931
1949
1948
1947
1946
1946
1945
1944
1943
1942
1942
1942
1942
1943
1943
1943
1943
1943
1941
1940
1938
1937
1937
1937
1938
1938
1939
1939
1940
1942
1944
1946
1949
1951
1953
1955
1957
1959
1960
1961
1961
1962
1962
1963
1964
1965
1966
1967
1967
1968
1969
1970
1970
1971
1970
1968
1967
1966
1966
1967
1967
1966
1966
1966
1966
1966
1964
1962
1959
1955
1951
1947
1943
1939
1935
1932
1928
1925
1944
1954
1951
1933
1908
1886
1874
1876
1893
1917
1917
1916
1914
1913
1910
1907
1905
1902
1900
1898
1897
1898
1898
1898
1900
1902
1903
1905
1907
1908
1909
1909
1909
1910
1909
1910
1910
1910
1912
1914
1916
1919
1920
1921
1922
1921
1921
1919
1916
1912
1910
1909
1908
1908
1909
1911
1912
1913
1914
1916
1916
1915
1915
1914
1914
1913
1912
1914
1917
1921
1927
1934
1940
1948
1955
1963
1973
1980
1988
1996
2003
2012
2022
2032
2043
2074
2112
2149
2175
2187
2182
2168
2152
2143
2145
2140
2133
2125
2115
2103
2089
2072
2056
2037
2018
1999
1979
1960
1941
1924
1910
1899
1890
1883
1879
1876
1874
1873
1872
1872
1872
1872
1871
1870
1868
1867
1866
1863
1861
1857
1851
1843
1833
1823
1814
1807
1804
1807
1817
1838
1870
1916
1975
2050
2141
2247
2367
2495
2621
2728
2808
2854
2863
2833
2764
2654
2509
2337
2153
1974
1808
1665
1546
1454
1389
1350
1336
1341
1363
1395
1438
1497
1571
1653
1730
1793
1836
1859
1867
1871
1877
1881
1884
1885
1886
1888
1889
1891
1893
1895
1897
1899
1900
1903
1905
1908
1912
1914
1917
1920
1924
1927
1930
1934
1936
1939
1942
1946
1949
1953
1956
1961
1966
1970
1975
1978
1981
1984
1986
1988
1988
1989
1990
1990
1992
1994
1997
2000
2003
2006
2010
2013
2016
2020
2023
2025
2027
2028
2030
2032
2033
2035
2038
2040
2043
2046
2049
2053
2056
2060
2062
2066
2069
2073
2077
2080
2064
2055
2060
2078
2105
2130
2147
2149
2136
2115
2115
2116
2117
2120
2122
2125
2129
2132
2135
2137
2138
2139
2137
2135
2132
2128
2123
2118
2112
2106
2100
2092
2084
2076
2067
2059
2050
2042
2035
2025
2017
2009
2002
1994
1988
1982
1977
1973
1970
1969
1970
1971
1972
1975
1977
1979
1979
1980
1979
1979
1979
1978
1977
1977
1976
1976
1978
1977
1977
1978
1978
1978
1979
1979
1979
1980
1981
1984
1985
1987
1988
1990
1992
1993
1993
1981
1961
1941
1931
1932
1948
1971
1994
2010
2012
2012
2013
2012
2012
2012
2011
2011
2011
2011
2010
2010
2008
2006
2002
1999
1996
1992
1987
1982
1977
1972
1969
1965
1962
1959
1957
1955
1953
1952
1951
1951
1950
1950
1950
1952
1953
1955
1957
1958
1959
1960
1960
1961
1960
1959
1959
1958
1959
1959
1960
1960
1959
1958
1956
1954
1951
1950
1948
1947
1946
1947
1948
1949
1952
1954
1957
1958
1959
1958
1957
1955
1954
1953
1951
1950
1963
1964
1951
1931
1912
1901
1903
1919
1945
1972
1975
1980
1985
1990
1994
2000
2007
2013
2020
2026
2035
2043
2052
2062
2075
2088
2102
2116
2128
2141
2151
2160
2166
2170
2169
2167
2163
2157
2151
2144
2136
2127
2118
2106
2094
2080
2064
2046
2026
2005
1982
1961
1941
1924
1909
1898
1889
1883
1880
1878
1877
1879
1881
1882
1885
1886
1887
1887
1888
1888
1887
1884
1879
1873
1864
1856
1848
1843
1841
1845
1856
1877
1910
1955
2014
2086
2236
2380
2502
2590
2642
2666
2668
2650
2615
2560
2413
2252
2093
1945
1814
1702
1610
1540
1491
1462
1451
1455
1470
1493
1524
1563
1608
1655
1705
1752
1794
1832
1864
1891
1912
1929
1942
1952
1958
1962
1967
1971
1974
1979
1983
1986
1990
1993
1997
2001
2005
2009
2014
2017
2021
2025
2030
2035
2039
2043
2048
2053
2056
2061
2066
2069
2071
2074
2078
2082
2085
2089
2093
2096
2098
2101
2104
2106
2107
2108
2109
2110
2112
2115
2118
2134
2159
2186
2204
2209
2199
2180
2160
2148
2150
2152
2156
2160
2164
2169
2173
2178
2182
2187
2192
2196
2199
2203
2206
2209
2212
2215
2218
2220
2223
2226
2229
2231
2233
2236
2239
2243
2247
2250
2255
2259
2263
2267
2272
2276
2279
2281
2281
2281
2279
2276
2271
2265
2259
2251
2243
2235
2227
2219
2212
2206
2201
2196
2191
2187
2183
2178
2173
2168
2161
2155
2148
2142
2137
2132
2128
2125
2123
2121
2120
2120
2121
2121
2122
2124
2112
2112
2127
2152
2177
2194
2198
2186
2165
2143
2143
2144
2145
2146
2147
2148
2149
2151
2152
2153
2153
2152
2152
2152
2153
2153
2154
2156
2157
2160
2162
2165
2167
2168
2169
2171
2172
2173
2173
2173
2173
2172
2171
2170
2169
2167
2165
2162
2159
2157
2154
2150
2147
2143
2139
2135
2130
2127
2124
2119
2116
2112
2110
2108
2106
2105
2106
2106
2106
2107
2107
2107
2108
2109
2109
2109
2108
2109
2109
2110
2111
2112
2112
2113
2112
2111
2087
2072
2068
2079
2099
2120
2135
2137
2125
2104
2104
2102
2101
2100
2100
2099
2098
2098
2097
2097
2098
2099
2101
2102
2103
2105
2106
2107
2109
2111
2113
2116
2119
2124
2130
2136
2144
2152
2161
2168
2177
2184
2190
2196
2201
2207
2214
2222
2232
2242
2251
2261
2270
2279
2287
2294
2298
2299
2298
2294
2289
2283
2276
2269
2260
2250
2237
2222
2206
2189
2170
2150
2130
2108
2088
2068
2052
2039
2029
2023
2019
2015
2013
2012
2011
2000
1979
1957
1941
1935
1943
1958
1974
1981
1974
1964
1954
1944
1938
1935
1938
1949
1972
2007
2055
2116
2190
2281
2386
2508
2640
2768
2877
2956
2998
3003
2965
2884
2762
2602
2417
2222
2032
1861
1714
1596
1509
1453
1426
1425
1444
1478
1523
1574
1630
1687
1743
1796
1843
1882
1913
1937
1954
1966
1974
1979
1980
1982
1984
1985
1985
1986
1988
1990
1992
1994
1996
1997
1999
2001
2003
2006
2008
2011
2013
2015
2018
2021
2024
2026
2044
2050
2042
2024
2004
1991
1991
2004
2027
2054
2058
2062
2066
2070
2072
2075
2076
2079
2081
2082
2084
2085
2085
2085
2086
2086
2086
2086
2087
2088
2090
2092
2094
2098
2103
2107
2111
2115
2119
2124
2128
2132
2136
2139
2142
2144
2147
2151
2154
2157
2161
2166
2171
2176
2181
2185
2189
2192
2196
2198
2200
2202
2203
2204
2204
2206
2207
2206
2206
2205
2204
2201
2199
2195
2191
2186
2180
2174
2167
2159
2151
2143
2135
2127
2119
2111
2124
2131
2126
2109
2080
2050
2027
2016
2019
2034
2031
2029
2028
2026
2025
2023
2023
2022
2021
2021
2020
2019
2019
2020
2021
2022
2024
2026
2028
2031
2032
2034
2035
2035
2036
2036
2034
2033
2031
2031
2031
2031
2031
2031
2032
2032
2033
2032
2033
2033
2034
2034
2035
2035
2035
2036
2037
2039
2040
2039
2040
2040
2041
2042
2043
2043
2042
2041
2039
2037
2036
2034
2032
2029
2026
2023
2022
2020
2018
2016
2014
2011
2009
2007
2004
2008
2022
2041
2055
2058
2047
2025
1999
1979
1971
1972
1972
1972
1973
1974
1974
1973
1973
1972
1971
1971
1970
1970
1969
1969
1969
1969
1970
1971
1972
1973
1974
1975
1976
1977
1977
1978
1978
1978
1976
1975
1974
1973
1972
1971
1971
1971
1971
1972
1974
1976
1979
1981
1984
1986
1990
1994
2000
2005
2011
2017
2024
2032
2040
2049
2058
2066
2074
2081
2089
2097
2106
2114
2123
2133
2143
2154
2163
2171
2178
2184
2188
2190
2190
2188
2159
2139
2130
2132
2137
2134
2118
2088
2045
1997
1979
1963
1947
1934
1922
1913
1905
1899
1895
1892
1889
1886
1885
1883
1882
1881
1881
1881
1881
1880
1878
1876
1871
1864
1855
1845
1835
1825
1818
1814
1816
1824
1843
1874
1919
1979
2054
2145
2255
2380
2517
2656
2779
2877
2938
2958
2936
2867
2752
2595
2407
2202
1996
1804
1637
1502
1401
1336
1305
1304
1328
1369
1422
1484
1549
1613
1673
1727
1774
1813
1841
1863
1878
1889
1896
1899
1879
1862
1855
1862
1883
1910
1931
1943
1941
1926
1928
1930
1933
1935
1937
1939
1942
1945
1947
1950
1952
1955
1958
1962
1964
1967
1971
1973
1977
1980
1984
1988
1991
1995
1999
2003
2008
2012
2016
2021
2024
2029
2033
2036
2039
2041
2043
2045
2047
2049
2050
2052
2053
2054
2056
2058
2060
2062
2065
2068
2071
2073
2076
2078
2081
2084
2088
2091
2094
2097
2099
2102
2105
2108
2110
2111
2111
2112
2113
2114
2116
2116
2117
2118
2119
2118
2104
2085
2068
2062
2068
2086
2110
2129
2138
2135
2131
2125
2118
2111
2104
2097
2090
2082
2073
2065
2058
2051
2043
2035
2028
2020
2014
2007
2001
1996
1991
1986
1983
1979
1976
1974
1971
1968
1967
1967
1965
1964
1964
1963
1963
1963
1963
1963
1963
1963
1963
1964
1966
1967
1968
1969
1970
1971
1973
1974
1976
1977
1978
1979
1980
1981
1982
1983
1983
1984
1984
1984
1984
1984
1984
1984
1985
1985
1986
1988
1990
1993
1995
1998
2019
2032
2031
2016
1994
1974
1963
1964
1978
2000
2000
2000
1999
1999
1999
1998
1996
1995
1994
1993
1991
1989
1988
1986
1985
1985
1985
1985
1985
1985
1985
1986
1987
1987
1987
1986
1985
1984
1983
1982
1980
1977
1974
1972
1970
1969
1968
1968
1967
1968
1968
1968
1969
1970
1971
1972
1974
1974
1974
1975
1977
1978
1978
1978
1979
1978
1978
1978
1977
1977
1977
1976
1976
1975
1973
1972
1971
1970
1969
1968
1967
1968
1968
1971
1973
1976
2006
2036
2057
2067
2062
2049
2040
2038
2050
2075
2081
2088
2095
2104
2114
2125
2136
2148
2160
2172
2182
2193
2201
2206
2209
2208
2205
2199
2191
2182
2170
2156
2141
2123
2104
2084
2063
2041
2020
1998
1979
1962
1947
1934
1924
1916
1911
1907
1906
1906
1906
1907
1907
1908
1909
1910
1911
1911
1911
1910
1909
1906
1901
1894
1886
1874
1863
1851
1842
1837
1837
1845
1865
1897
1944
2007
2085
2182
2297
2429
2569
2706
2823
2908
2955
2878
2781
2662
2512
2331
2121
1897
1677
1483
1331
1310
1317
1344
1388
1442
1503
1565
1628
1687
1739
1784
1821
1849
1870
1884
1894
1900
1904
1906
1908
1910
1912
1913
1915
1917
1919
1923
1927
1931
1935
1940
1944
1948
1952
1956
1960
1964
1967
1969
1972
1974
1976
1979
1981
1983
1985
1986
1988
1989
1990
1991
1993
1993
1994
1995
1998
2000
2003
2005
2007
2011
2014
2017
2021
2025
2029
2033
2036
2040
2042
2044
2047
2050
2053
2056
2037
2026
2029
2046
2074
2102
2120
2125
2116
2098
2101
2104
2106
2108
2110
2112
2114
2116
2118
2119
2122
2124
2127
2129
2132
2134
2137
2139
2142
2146
2149
2150
2151
2152
2154
2155
2156
2157
2157
2156
2155
2153
2151
2145
2140
2133
2125
2116
2107
2097
2088
2079
2071
2063
2055
2048
2041
2036
2031
2027
2023
2019
2015
2011
2008
2005
2001
1998
1996
1994
1991
1988
1986
1984
1984
1983
1983
1983
1984
1985
1987
1990
1992
1994
1996
1997
1977
1955
1940
1937
1948
1969
1992
2007
2010
1999
2000
2002
2003
2005
2007
2007
2008
2009
2010
2011
2013
2014
2015
2016
2016
2017
2018
2020
2021
2022
2023
2025
2025
2027
2027
2028
2026
2027
2028
2028
2027
2026
2025
2022
2019
2017
2015
2012
2009
2006
2003
2001
1999
1998
1997
1995
1995
1993
1992
1991
1990
1988
1987
1986
1986
1985
1985
1986
1986
1987
1988
1989
1991
1992
1993
1993
1993
1993
1992
1990
1988
1985
1983
1980
1976
1976
1962
1940
1915
1900
1897
1908
1929
1953
1969
1970
1970
1970
1970
1970
1969
1969
1969
1968
1966
1966
1965
1964
1963
1961
1959
1959
1959
1959
1960
1960
1962
1962
1963
1965
1966
1967
1968
1970
1972
1975
1979
1985
1993
2000
2008
2016
2023
2031
2038
2044
2049
2054
2059
2063
2068
2074
2082
2092
2104
2116
2127
2137
2147
2156
2163
2167
2170
2170
2167
2161
2154
2147
2138
2126
2113
2099
2082
2064
2045
2026
2005
1985
1965
1947
1952
1952
1942
1921
1893
1864
1845
1839
1847
1866
1866
1866
1866
1866
1864
1863
1860
1854
1847
1837
1825
1813
1801
1790
1784
1783
1790
1807
1837
1881
1940
2014
2105
2214
2339
2474
2607
2726
2818
2875
2894
2873
2807
2697
2546
2365
2169
1973
1791
1632
1500
1397
1327
1290
1281
1295
1327
1372
1426
1485
1544
1604
1659
1708
1750
1784
1811
1831
1846
1856
1862
1864
1866
1867
1870
1872
1875
1878
1881
1886
1890
1894
1899
1902
1905
1907
1931
1957
1975
1981
1973
1955
1934
1920
1919
1932
1934
1935
1935
1936
1937
1938
1939
1940
1940
1941
1941
1942
1945
1947
1950
1952
1953
1957
1962
1967
1972
1976
1979
1980
1982
1984
1986
1987
1988
1990
1992
1994
1996
1999
2002
2005
2009
2012
2016
2019
2022
2024
2027
2030
2033
2035
2036
2038
2040
2042
2043
2044
2045
2046
2047
2048
2049
2052
2053
2055
2058
2062
2066
2072
2077
2083
2088
2091
2094
2097
2098
2097
2095
2092
2088
2076
2078
2090
2103
2109
2102
2081
2050
2016
1990
1982
1975
1968
1962
1956
1950
1945
1942
1939
1936
1935
1934
1933
1933
1933
1935
1937
1939
1942
1944
1948
1950
1953
1955
1958
1959
1960
1962
1963
1964
1965
1967
1969
1971
1973
1977
1980
1983
1987
1991
1994
1998
2001
2004
2007
2009
2009
2010
2009
2009
2009
2009
2009
2009
2009
2008
2008
2008
2008
2007
2006
2005
2004
2003
2002
2000
2000
1999
1996
1994
1992
1989
1987
1985
1983
1959
1942
1937
1946
1966
1987
2001
2003
1990
1967
1965
1963
1961
1960
1960
1961
1963
1965
1966
1969
1971
1973
1975
1976
1976
1976
1976
1976
1976
1975
1976
1975
1976
1978
1979
1980
1981
1981
1981
1982
1981
1981
1980
1980
1979
1979
1978
1978
1978
1978
1979
1979
1979
1980
1981
1982
1983
1983
1983
1983
1982
1981
1981
1980
1979
1977
1975
1974
1973
1972
1972
1972
1971
1972
1973
1974
1977
1979
1982
1985
1989
1991
1994
1996
1999
2005
1993
1979
1973
1980
2000
2034
2070
2101
2120
2124
2134
2145
2154
2162
2169
2174
2179
2182
2184
2184
2182
2178
2173
2167
2159
2150
2138
2124
2107
2091
2073
2055
2036
2017
1997
1979
1963
1949
1936
1925
1916
1909
1905
1900
1897
1894
1892
1890
1889
1889
1888
1887
1886
1886
1884
1881
1877
1872
1864
1855
1848
1841
1838
1838
1845
1859
1885
1922
1973
2037
2113
2204
2311
2429
2551
2666
2760
2825
2857
2854
2814
2735
2620
2474
2308
2131
1951
1779
1628
1512
1434
1399
1402
1429
1468
1510
1557
1606
1655
1702
1746
1783
1813
1838
1857
1871
1881
1889
1895
1900
1903
1908
1911
1913
1915
1918
1920
1922
1925
1927
1930
1934
1938
1943
1949
1955
1960
1965
1969
1972
1975
1978
1981
1982
1985
1986
1988
1991
1994
1998
2002
2006
2008
2013
2018
2023
2027
2031
2036
2040
2045
2049
2054
2059
2063
2066
2070
2074
2078
2081
2084
2087
2089
2091
2094
2097
2099
2102
2104
2107
2134
2153
2162
2156
2139
2120
2107
2108
2124
2152
2160
2168
2174
2181
2188
2195
2202
2208
2214
2219
2223
2227
2231
2233
2236
2238
2239
2240
2240
2240
2240
2240
2241
2241
2240
2240
2238
2237
2234
2231
2227
2220
2213
2205
2197
2189
2181
2173
2165
2158
2152
2147
2142
2138
2135
2132
2129
2126
2123
2120
2117
2115
2112
2110
2108
2107
2106
2106
2106
2106
2106
2107
2109
2110
2110
2111
2112
2113
2114
2115
2116
2118
2119
2121
2122
2124
2147
2173
2193
2201
2193
2174
2153
2139
2138
2151
2154
2157
2161
2163
2167
2170
2171
2172
2171
2169
2169
2168
2166
2165
2162
2160
2159
2158
2159
2160
2159
2157
2156
2154
2153
2151
2148
2145
2143
2140
2138
2134
2132
2130
2127
2124
2122
2121
2119
2116
2115
2113
2112
2111
2111
2111
2111
2110
2110
2110
2111
2112
2112
2112
2112
2111
2110
2110
2109
2110
2109
2108
2108
2109
2109
2111
2113
2114
2116
2117
2119
2120
2121
2122
2122
2117
2126
2147
2171
2189
2195
2187
2167
2143
2126
2126
2126
2123
2121
2119
2117
2115
2114
2114
2113
2113
2114
2116
2117
2119
2121
2123
2127
2131
2136
2141
2147
2153
2160
2167
2173
2180
2186
2192
2198
2204
2211
2218
2227
2237
2248
2260
2272
2283
2293
2303
2311
2316
2320
2320
2318
2314
2308
2301
2294
2285
2274
2261
2246
2229
2212
2193
2172
2152
2132
2113
2095
2080
2067
2057
2050
2045
2043
2040
2039
2039
2038
2037
2036
2035
2032
2058
2112
2187
2276
2373
2472
2575
2684
2797
2912
2999
3049
3061
3031
2956
2836
2678
2492
2293
2097
1917
1761
1634
1538
1474
1443
1438
1455
1489
1534
1586
1642
1699
1755
1808
1856
1896
1928
1954
1973
1987
1997
2004
2009
2013
2015
2018
2021
2024
2027
2031
2034
2036
2038
2040
2041
2042
2044
2046
2048
2049
2052
2055
2058
2061
2064
2068
2071
2074
2077
2080
2083
2084
2086
2087
2088
2087
2086
2084
2084
2082
2081
2081
2082
2083
2079
2089
2111
2137
2156
2165
2159
2142
2120
2103
2105
2107
2108
2110
2113
2117
2119
2121
2123
2125
2127
2129
2131
2133
2135
2137
2140
2143
2145
2146
2148
2150
2151
2153
2156
2158
2160
2163
2167
2170
2172
2175
2178
2181
2184
2187
2190
2192
2193
2195
2195
2195
2195
2194
2192
2189
2185
2182
2178
2173
2167
2160
2152
2143
2133
2124
2114
2103
2093
2084
2074
2065
2056
2047
2039
2031
2024
2017
2012
2005
2000
1995
1992
1989
1985
1959
1938
1931
1938
1957
1981
2000
2009
2003
1986
1987
1988
1987
1988
1989
1991
1993
1994
1997
2000
2003
2006
2009
2011
2013
2014
2015
2016
2016
2015
2015
2013
2011
2010
2008
2007
2006
2006
2006
2007
2008
2009
2011
2013
2014
2015
2017
2017
2018
2019
2018
2017
2018
2015
2014
2012
2011
2008
2006
2004
2003
2001
1998
1998
1996
1993
1990
1987
1984
1981
1978
1977
1975
1972
1971
1970
1970
1970
1970
1969
1969
1969
1968
1969
1969
1963
1944
1921
1903
1897
1905
1923
1947
1966
1974
1974
1974
1975
1974
1973
1972
1971
1970
1969
1968
1968
1967
1965
1964
1964
1964
1963
1963
1961
1961
1961
1961
1961
1961
1961
1962
1964
1966
1970
1973
1974
1976
1977
1978
1977
1977
1975
1973
1971
1969
1967
1967
1967
1967
1967
1968
1969
1973
1977
1982
1988
1994
2001
2009
2018
2026
2035
2043
2050
2057
2064
2072
2079
2088
2098
2109
2121
2132
2143
2152
2161
2169
2176
2179
2180
2178
2176
2159
2128
2089
2053
2025
2009
2005
2005
2000
1980
1962
1945
1931
1919
1909
1902
1895
1891
1889
1888
1887
1886
1885
1885
1884
1883
1883
1882
1882
1881
1879
1875
1869
1861
1852
1841
1830
1821
1814
1811
1815
1830
1857
1897
1952
2022
2110
2215
2340
2479
2621
2750
2853
2920
2946
2931
2871
2764
2613
2429
2224
2017
1823
1653
1514
1406
1333
1295
1289
1308
1345
1397
1456
1520
1583
1645
1700
1747
1785
1815
1838
1854
1865
1873
1902
1925
1937
1936
1922
1903
1888
1884
1893
1915
1918
1921
1922
1924
1925
1926
1928
1930
1933
1935
1937
1939
1942
1945
1949
1952
1955
1958
1960
1961
1964
1966
1968
1970
1971
1974
1977
1981
1985
1989
1992
1996
1999
2003
2007
2009
2012
2014
2017
2019
2022
2024
2026
2029
2032
2036
2038
2042
2045
2048
2053
2057
2061
2065
2070
2073
2078
2082
2085
2088
2090
2093
2095
2096
2097
2099
2100
2102
2105
2107
2110
2112
2115
2119
2122
2131
2153
2179
2201
2213
2209
2194
2172
2152
2143
2141
2136
2131
2125
2118
2111
2103
2094
2087
2079
2071
2063
2054
2045
2037
2028
2019
2011
2003
1996
1989
1982
1976
1973
1969
1966
1964
1963
1962
1960
1959
1959
1959
1958
1957
1955
1953
1951
1950
1948
1946
1944
1942
1942
1940
1940
1941
1941
1940
1940
1941
1942
1943
1944
1945
1946
1948
1950
1952
1955
1957
1959
1962
1964
1967
1968
1969
1970
1971
1970
1971
1972
1973
1975
1975
1976
1968
1973
1992
2016
2035
2043
2037
2018
1995
1975
1975
1974
1973
1970
1967
1964
1961
1956
1952
1947
1942
1937
1933
1930
1928
1926
1924
1923
1922
1921
1922
1923
1923
1923
1922
1923
1923
1923
1924
1924
1924
1924
1923
1923
1923
1923
1924
1924
1924
1924
1925
1925
1926
1927
1927
1928
1928
1929
1929
1928
1926
1924
1922
1919
1917
1913
1911
1908
1906
1906
1906
1907
1907
1908
1909
1909
1910
1910
1911
1912
1912
1913
1913
1914
1914
1891
1873
1864
1871
1888
1912
1933
1944
1941
1926
1927
1928
1929
1929
1931
1931
1932
1933
1937
1941
1947
1952
1958
1965
1971
1979
1987
1994
2001
2008
2015
2023
2032
2042
2053
2064
2076
2087
2097
2106
2115
2121
2126
2129
2130
2128
2125
2119
2114
2106
2097
2087
2075
2061
2045
2029
2012
1993
1973
1954
1935
1917
1900
1887
1876
1867
1860
1855
1852
1850
1849
1849
1850
1849
1847
1845
1844
1842
1840
1837
1832
1825
1816
1806
1797
1789
1772
1757
1754
1772
1817
1891
1986
2097
2218
2342
2475
2604
2717
2802
2853
2866
2841
2774
2663
2514
2336
2146
1960
1787
1638
1514
1418
1352
1316
1307
1321
1351
1392
1442
1496
1553
1610
1664
1712
1754
1789
1817
1839
1855
1867
1875
1879
1880
1881
1883
1884
1885
1886
1888
1891
1893
1895
1898
1901
1902
1905
1907
1911
1914
1916
1921
1924
1929
1932
1936
1939
1942
1946
1949
1952
1954
1958
1961
1965
1968
1971
1975
1977
1980
1983
1998
1999
1987
1970
1956
1952
1962
1982
2010
2031
2031
2030
2029
2028
2028
2029
2030
2034
2037
2041
2046
2050
2054
2056
2059
2063
2066
2069
2072
2075
2078
2082
2086
2091
2095
2098
2101
2103
2106
2108
2110
2112
2115
2116
2118
2120
2123
2126
2130
2134
2138
2143
2147
2150
2153
2154
2154
2153
2149
2144
2138
2131
2123
2116
2108
2099
2092
2084
2078
2070
2063
2055
2047
2038
2030
2023
2016
2009
2003
1998
1993
1989
1986
1984
1981
2002
2019
2027
2021
2003
1979
1959
1949
1953
1970
1971
1972
1973
1974
1975
1976
1978
1979
1981
1982
1984
1986
1986
1988
1989
1989
1989
1988
1987
1986
1985
1983
1983
1982
1981
1981
1982
1982
1983
1984
1985
1986
1986
1987
1988
1989
1988
1988
1988
1987
1987
1986
1986
1985
1984
1982
1981
1980
1978
1977
1976
1974
1974
1973
1973
1973
1973
1973
1972
1971
1969
1966
1963
1960
1956
1952
1949
1946
1945
1943
1943
1943
1943
1944
1945
1950
1968
1993
2015
2027
2024
2007
1982
1960
1948
1945
1942
1940
1937
1935
1934
1935
1935
1937
1938
1940
1941
1941
1942
1943
1945
1947
1949
1950
1952
1955
1958
1962
1965
1968
1970
1973
1975
1977
1977
1977
1975
1973
1971
1968
1967
1965
1964
1963
1962
1961
1962
1962
1963
1965
1966
1967
1968
1969
1971
1974
1979
1985
1992
1999
2007
2016
2023
2032
2041
2050
2058
2066
2074
2081
2090
2100
2111
2122
2134
2147
2160
2172
2183
2195
2203
2195
2199
2214
2234
2251
2256
2245
2217
2180
2145
2131
2117
2101
2083
2065
2046
2028
2012
1998
1986
1977
1969
1964
1961
1960
1959
1959
1959
1959
1959
1959
1960
1959
1958
1957
1955
1951
1947
1941
1934
1926
1920
1918
1918
1923
1935
1957
1988
2033
2089
2159
2242
2336
2445
2565
2684
2792
2876
2928
2948
2932
2880
2791
2666
2511
2342
2170
2009
1866
1743
1643
1566
1514
1486
1479
1487
1510
1543
1585
1633
1685
1740
1793
1842
1886
1900
1910
1924
1945
1975
2008
2036
2054
2056
2043
2048
2050
2052
2053
2054
2055
2056
2057
2058
2059
2061
2063
2067
2070
2074
2079
2085
2088
2092
2097
2100
2103
2105
2107
2110
2111
2113
2115
2119
2121
2124
2127
2130
2133
2135
2138
2140
2141
2143
2144
2146
2147
2148
2149
2150
2152
2152
2154
2154
2156
2157
2159
2160
2161
2162
2164
2167
2168
2170
2171
2173
2174
2175
2177
2179
2181
2183
2186
2189
2192
2195
2199
2203
2208
2212
2214
2204
2185
2167
2159
2164
2183
2210
2235
2250
2252
2254
2255
2255
2255
2254
2253
2251
2248
2244
2238
2232
2225
2216
2208
2197
2186
2174
2162
2150
2139
2128
2119
2111
2104
2098
2093
2089
2086
2083
2081
2078
2075
2073
2070
2069
2068
2067
2066
2066
2067
2068
2070
2073
2077
2080
2083
2086
2089
2091
2094
2096
2099
2100
2101
2102
2103
2104
2106
2108
2110
2112
2113
2114
2116
2117
2118
2120
2122
2124
2125
2127
2128
2130
2132
2133
2146
2145
2131
2109
2087
2075
2075
2090
2111
2131
2130
2128
2124
2121
2118
2117
2114
2111
2109
2107
2105
2103
2101
2098
2096
2093
2091
2090
2089
2087
2086
2085
2084
2082
2082
2080
2079
2077
2076
2074
2072
2071
2070
2069
2068
2068
2068
2067
2066
2066
2064
2063
2061
2058
2056
2052
2050
2047
2044
2043
2042
2041
2039
2039
2038
2038
2038
2037
2037
2038
2038
2039
2041
2042
2044
2045
2046
2046
2045
2044
2043
2042
2041
2041
2040
2062
2083
2095
2094
2080
2057
2036
2023
2024
2038
2038
2038
2038
2037
2038
2039
2041
2043
2047
2052
2059
2067
2074
2083
2091
2099
2106
2113
2121
2128
2135
2141
2149
2156
2166
2176
2188
2200
2211
2221
2230
2237
2243
2247
2249
2248
2246
2241
2236
2230
2222
2214
2205
2192
2177
2159
2139
2118
2095
2073
2051
2029
2009
1992
1977
1966
1958
1952
1948
1944
1943
1941
1940
1940
1940
1939
1939
1940
1940
1940
1939
1936
1931
1925
1916
1911
1922
1945
1975
2004
2031
2057
2091
2143
2225
2338
2466
2604
2738
2854
2939
2987
2993
2956
2873
2746
2581
2390
2188
1992
1815
1665
1546
1459
1406
1383
1387
1411
1451
1501
1557
1617
1677
1734
1786
1832
1869
1899
1922
1938
1949
1956
1961
1963
1965
1968
1970
1973
1975
1979
1982
1986
1990
1993
1996
1999
2002
2003
2005
2007
2007
2007
2008
2008
2009
2011
2013
2015
2018
2021
2024
2027
2030
2032
2034
2035
2037
2038
2039
2040
2040
2029
2031
2048
2073
2096
2110
2109
2096
2074
2055
2056
2058
2059
2059
2061
2062
2065
2067
2070
2070
2072
2074
2077
2080
2083
2086
2089
2093
2095
2099
2103
2106
2109
2111
2113
2115
2117
2119
2121
2123
2125
2127
2131
2133
2137
2140
2143
2145
2148
2150
2152
2155
2157
2160
2162
2163
2164
2164
2162
2160
2157
2151
2145
2139
2131
2123
2116
2108
2100
2092
2085
2077
2070
2063
2055
2048
2041
2034
2029
2024
2019
2016
2011
2007
2005
1980
1957
1945
1945
1959
1983
2004
2017
2016
2001
2000
1998
1995
1993
1991
1990
1989
1989
1989
1990
1990
1990
1993
1993
1994
1994
1995
1994
1994
1995
1997
1998
2000
2002
2004
2006
2008
2011
2012
2015
2016
2017
2016
2016
2015
2015
2014
2013
2013
2012
2012
2012
2012
2013
2013
2013
2013
2013
2012
2011
2011
2009
2008
2005
2002
1998
1995
1991
1988
1984
1981
1978
1976
1974
1973
1971
1970
1969
1969
1969
1969
1970
1970
1971
1972
1974
1961
1941
1922
1911
1913
1930
1954
1977
1990
1990
1990
1989
1988
1986
1985
1983
1980
1980
1978
1978
1978
1976
1975
1975
1974
1973
1973
1971
1970
1969
1969
1968
1968
1969
1970
1971
1972
1974
1976
1977
1978
1980
1981
1980
1981
1981
1981
1981
1980
1979
1978
1977
1976
1976
1975
1974
1973
1973
1974
1975
1975
1976
1978
1980
1983
1987
1992
1998
2005
2013
2021
2029
2038
2047
2057
2066
2074
2082
2090
2099
2109
2120
2132
2142
2152
2174
2181
2173
2154
2133
2117
2112
2119
2132
2142
2128
2113
2097
2079
2060
2040
2019
1998
1978
1959
1943
1928
1916
1906
1898
1892
1888
1886
1884
1883
1883
1882
1883
1883
1884
1885
1885
1885
1884
1881
1876
1869
1860
1851
1841
1832
1826
1823
1825
1837
1858
1892
1939
2000
2076
2169
2280
2409
2548
2686
2807
2898
2953
2966
2935
2858
2735
2572
2379
2173
1971
1786
1628
1501
1407
1347
1321
1325
1350
1393
1445
1504
1566
1628
1687
1763
1831
1882
1913
1921
1916
1905
1899
1903
1920
1923
1926
1929
1931
1934
1937
1939
1943
1946
1948
1951
1953
1955
1959
1962
1964
1966
1968
1970
1972
1975
1978
1981
1984
1987
1990
1993
1996
1999
2001
2003
2005
2007
2009
2011
2014
2017
2019
2022
2025
2028
2031
2032
2035
2038
2040
2043
2046
2048
2051
2054
2058
2062
2065
2069
2072
2075
2078
2081
2083
2086
2089
2092
2096
2100
2104
2108
2111
2115
2118
2121
2124
2126
2128
2129
2129
2143
2168
2193
2212
2216
2206
2186
2167
2154
2157
2158
2158
2159
2157
2157
2157
2156
2154
2150
2147
2142
2137
2132
2126
2120
2114
2107
2099
2092
2084
2076
2067
2058
2049
2040
2030
2021
2012
2004
1997
1990
1985
1980
1976
1973
1971
1971
1972
1973
1974
1976
1977
1979
1981
1983
1985
1986
1987
1988
1989
1989
1990
1990
1990
1990
1990
1990
1991
1990
1990
1990
1991
1992
1995
1996
1998
2000
2001
2003
2005
2008
2009
2011
2011
2012
1998
1995
2008
2031
2055
2072
2077
2066
2047
2025
2026
2027
2027
2026
2026
2025
2023
2022
2021
2020
2018
2016
2013
2010
2008
2005
2002
2000
1997
1994
1991
1989
1986
1983
1982
1981
1979
1979
1977
1977
1976
1975
1975
1976
1976
1976
1975
1974
1974
1974
1974
1975
1975
1975
1975
1975
1976
1977
1978
1977
1976
1975
1973
1972
1969
1967
1965
1964
1964
1962
1961
1959
1958
1958
1958
1958
1958
1959
1959
1961
1962
1964
1966
1966
1968
1947
1925
1909
1905
1916
1937
1960
1976
1980
1968
1968
1967
1965
1965
1965
1965
1965
1966
1967
1968
1969
1972
1975
1977
1981
1984
1990
1995
2002
2009
2015
2022
2029
2035
2041
2048
2054
2059
2065
2072
2081
2090
2101
2113
2124
2135
2143
2151
2158
2162
2164
2163
2160
2155
2149
2141
2133
2124
2114
2102
2087
2071
2052
2032
2010
1988
1966
1945
1926
1909
1894
1882
1872
1864
1858
1853
1849
1845
1843
1841
1839
1838
1838
1838
1838
1837
1820
1790
1755
1726
1710
1708
1721
1740
1759
1775
1802
1842
1896
1966
2052
2155
2274
2408
2546
2673
2776
2846
2876
2867
2813
2715
2575
2400
2205
2005
1816
1648
1508
1396
1317
1270
1253
1259
1286
1326
1378
1435
1495
1555
1611
1662
1706
1743
1772
1793
1807
1818
1825
1829
1833
1834
1837
1839
1842
1845
1849
1853
1857
1861
1865
1868
1873
1877
1882
1886
1891
1895
1899
1902
1906
1909
1912
1916
1919
1923
1926
1930
1934
1938
1942
1965
1976
1971
1955
1936
1925
1923
1935
1958
1984
1986
1987
1988
1988
1989
1989
1990
1991
1993
1995
1997
2000
2004
2008
2012
2016
2019
2023
2026
2029
2031
2035
2038
2041
2043
2045
2046
2045
2046
2045
2046
2045
2044
2044
2045
2047
2050
2055
2058
2062
2065
2069
2073
2075
2077
2079
2080
2082
2084
2087
2090
2092
2094
2096
2097
2099
2099
2098
2096
2092
2088
2083
2077
2071
2064
2055
2047
2037
2027
2018
2008
1999
1990
1981
1973
1984
1999
2011
2012
2000
1976
1950
1931
1924
1931
1932
1932
1932
1933
1933
1935
1937
1938
1940
1942
1944
1946
1947
1948
1948
1948
1947
1946
1944
1942
1941
1939
1939
1939
1940
1941
1942
1944
1946
1948
1950
1953
1956
1958
1960
1963
1965
1968
1971
1973
1974
1975
1976
1977
1978
1978
1979
1979
1978
1978
1977
1975
1974
1973
1972
1971
1970
1969
1968
1968
1967
1967
1967
1968
1968
1968
1968
1968
1967
1966
1965
1964
1963
1962
1960
1950
1956
1974
1998
2016
2024
2018
1999
1976
1959
1959
1959
1958
1957
1955
1953
1952
1951
1949
1947
1947
1947
1948
1949
1949
1950
1950
1951
1952
1952
1951
1949
1947
1946
1947
1948
1950
1952
1952
1954
1953
1955
1955
1954
1953
1951
1950
1947
1946
1945
1943
1943
1943
1944
1944
1946
1947
1949
1951
1952
1953
1954
1954
1955
1956
1956
1958
1962
1967
1973
1980
1989
1998
2006
2016
2025
2034
2041
2047
2053
2060
2066
2073
2082
2091
2102
2093
2096
2111
2137
2168
2192
2205
2200
2180
2151
2144
2136
2128
2117
2104
2089
2073
2056
2036
2016
1995
1973
1952
1933
1917
1902
1891
1883
1879
1876
1874
1873
1873
1874
1876
1877
1878
1878
1879
1879
1879
1879
1875
1869
1861
1852
1842
1833
1825
1821
1822
1829
1846
1874
1915
1970
2038
2118
2213
2321
2439
2558
2667
2754
2811
2837
2827
2782
2699
2579
2431
2264
2093
1931
1785
1659
1556
1476
1421
1389
1376
1382
1402
1432
1470
1508
1542
1578
1623
1678
1741
1803
1855
1891
1907
1912
1915
1918
1920
1923
1926
1930
1934
1938
1942
1947
1951
1955
1959
1962
1966
1969
1972
1976
1980
1984
1988
1994
1999
2004
2010
2015
2020
2025
2030
2035
2039
2043
2047
2051
2055
2058
2063
2067
2072
2075
2078
2081
2084
2088
2090
2094
2096
2098
2099
2101
2104
2106
2109
2112
2115
2118
2123
2128
2133
2138
2142
2145
2148
2151
2153
2156
2159
2162
2166
2170
2174
2178
2181
2185
2201
2202
2189
2169
2152
2144
2150
2171
2200
2225
2230
2235
2240
2245
2251
2256
2260
2263
2266
2268
2270
2270
2269
2267
2263
2259
2255
2248
2240
2231
2221
2210
2199
2189
2179
2169
2159
2151
2144
2137
2132
2128
2125
2121
2119
2117
2114
2112
2110
2109
2107
2106
2105
2105
2105
2105
2105
2106
2107
2108
2110
2111
2112
2112
2112
2112
2113
2114
2115
2118
2120
2124
2127
2130
2135
2138
2141
2143
2144
2144
2145
2144
2144
2144
2144
2145
2166
2178
2178
2165
2143
2125
2116
2120
2137
2162
2165
2166
2167
2167
2165
2163
2160
2157
2154
2150
2145
2141
2137
2134
2132
2129
2128
2126
2125
2124
2123
2122
2121
2120
2119
2117
2115
2114
2113
2112
2111
2111
2111
2111
2111
2111
2111
2111
2110
2109
2109
2108
2106
2105
2104
2102
2101
2100
2099
2099
2098
2098
2099
2100
2100
2099
2099
2098
2098
2098
2098
2098
2097
2096
2095
2094
2094
2094
2093
2092
2092
2091
2091
2091
2091
2105
2127
2149
2161
2160
2146
2123
2102
2091
2092
2093
2094
2095
2096
2098
2100
2103
2107
2112
2118
2126
2134
2142
2150
2159
2167
2174
2182
2189
2196
2204
2212
2223
2236
2249
2263
2276
2287
2296
2304
2310
2314
2313
2311
2307
2301
2294
2285
2277
2267
2255
2241
2225
2206
2187
2166
2145
2124
2103
2083
2066
2051
2038
2028
2020
2013
2008
2003
2001
1998
1996
1995
1995
1994
1996
1997
1998
1998
1997
1993
1987
1978
1965
1953
1940
1924
1929
1957
2006
2069
2137
2209
2287
2374
2480
2612
2741
2854
2940
2990
3003
2974
2901
2787
2633
2450
2254
2059
1879
1722
1593
1495
1429
1394
1388
1403
1435
1481
1534
1593
1653
1712
1767
1817
1859
1894
1920
1938
1952
1960
1964
1967
1968
1969
1970
1970
1972
1975
1977
1980
1984
1988
1991
1994
1997
2000
2002
2004
2007
2009
2011
2012
2013
2016
2017
2019
2021
2023
2025
2028
2030
2033
2036
2038
2042
2045
2048
2050
2052
2054
2057
2036
2024
2024
2040
2065
2090
2109
2114
2104
2084
2087
2089
2093
2095
2096
2098
2100
2102
2103
2105
2107
2108
2109
2111
2113
2114
2116
2118
2119
2121
2123
2126
2129
2131
2134
2137
2140
2143
2145
2148
2150
2151
2152
2154
2155
2156
2160
2161
2163
2165
2167
2169
2171
2171
2171
2170
2167
2165
2163
2159
2155
2150
2144
2138
2131
2123
2116
2109
2101
2094
2086
2079
2071
2063
2054
2047
2039
2031
2024
2017
2011
2006
2000
1994
1990
1974
1950
1925
1910
1908
1921
1944
1969
1987
1992
1996
1998
2000
2001
2002
2002
2002
2002
2002
2003
2002
2002
2003
2004
2004
2006
2007
2010
2011
2013
2015
2016
2017
2017
2017
2016
2014
2012
2011
2010
2009
2008
2006
2007
2007
2007
2006
2006
2005
2003
2002
2001
1999
1997
1996
1995
1993
1993
1993
1992
1993
1992
1992
1992
1991
1990
1990
1990
1989
1989
1987
1986
1985
1983
1982
1981
1979
1978
1976
1975
1974
1975
1975
1976
1977
1993
1998
1989
1971
1950
1937
1935
1947
1968
1991
1990
1989
1988
1985
1983
1981
1979
1978
1978
1976
1975
1974
1974
1975
1976
1976
1977
1977
1976
1977
1977
1977
1976
1976
1975
1975
1973
1973
1972
1971
1970
1970
1969
1968
1966
1965
1964
1963
1963
1963
1963
1965
1968
1970
1976
1983
1989
1995
2002
2009
2017
2024
2030
2037
2043
2049
2056
2064
2074
2086
2098
2111
2124
2136
2147
2157
2166
2172
2176
2176
2174
2169
2164
2157
2148
2139
2143
2136
2117
2082
2037
1991
1953
1928
1919
1921
1911
1903
1898
1894
1892
1891
1890
1889
1886
1884
1882
1881
1880
1878
1877
1874
1871
1866
1860
1851
1842
1831
1820
1812
1807
1807
1813
1830
1858
1900
1955
2026
2112
2216
2336
2469
2606
2731
2834
2902
2933
2922
2867
2766
2622
2442
2242
2037
1843
1672
1528
1418
1340
1298
1287
1303
1339
1390
1450
1514
1580
1641
1698
1749
1792
1825
1850
1868
1880
1888
1891
1894
1897
1898
1900
1914
1939
1966
1987
1996
1992
1975
1957
1947
1947
1950
1952
1956
1958
1961
1963
1966
1969
1972
1976
1980
1985
1989
1993
1996
1999
2002
2004
2006
2007
2007
2008
2009
2010
2012
2014
2016
2018
2020
2022
2024
2027
2029
2030
2032
2033
2035
2036
2038
2040
2043
2046
2050
2053
2056
2061
2065
2070
2073
2077
2081
2085
2088
2092
2096
2098
2101
2103
2105
2107
2109
2110
2111
2112
2113
2113
2114
2115
2116
2118
2119
2121
2123
2126
2128
2114
2113
2126
2149
2173
2190
2193
2180
2156
2129
2123
2117
2110
2101
2092
2084
2075
2066
2057
2049
2040
2031
2023
2016
2009
2002
1996
1990
1985
1982
1979
1977
1976
1974
1973
1971
1971
1969
1969
1969
1969
1969
1970
1971
1972
1974
1976
1979
1980
1982
1984
1986
1987
1988
1989
1990
1991
1993
1995
1997
2000
2001
2004
2005
2007
2008
2009
2010
2011
2012
2012
2013
2014
2015
2017
2020
2022
2023
2024
2025
2027
2028
2028
2029
2030
2030
2007
1993
1989
2000
2021
2045
2060
2064
2053
2031
2029
2027
2025
2022
2020
2017
2015
2013
2012
2011
2011
2010
2009
2008
2007
2006
2006
2006
2004
2003
2002
2000
2000
1999
1998
1998
1997
1996
1996
1996
1996
1996
1996
1997
1998
1999
1999
2000
2000
1999
1999
1999
1998
1997
1995
1994
1993
1993
1992
1992
1992
1992
1993
1994
1995
1995
1996
1995
1996
1996
1996
1997
1997
1997
1997
1998
1998
1998
1998
1998
1998
1996
1995
1995
1996
1987
1969
1951
1941
1945
1964
1994
2027
2054
2068
2077
2087
2095
2102
2109
2116
2124
2133
2143
2155
2166
2178
2189
2198
2206
2213
2218
2222
2222
2220
2217
2211
2205
2196
2185
2173
2159
2143
2125
2105
2085
2063
2042
2022
2003
1985
1970
1957
1946
1938
1931
1927
1923
1921
1919
1918
1917
1917
1917
1917
1918
1918
1918
1917
1915
1911
1904
1894
1882
1869
1855
1844
1835
1831
1834
1847
1872
1913
1968
2039
2127
2232
2353
2487
2625
2710
2746
2728
2659
2549
2412
2255
2087
1909
1724
1581
1469
1390
1346
1333
1345
1378
1425
1481
1542
1602
1662
1717
1766
1808
1842
1868
1887
1901
1910
1915
1918
1921
1922
1924
1926
1927
1929
1929
1931
1933
1935
1937
1941
1943
1947
1950
1953
1957
1960
1963
1966
1969
1971
1974
1977
1980
1983
1986
1989
1992
1996
1999
2001
2002
2004
2006
2006
2008
2009
2010
2012
2013
2014
2016
2017
2019
2021
2022
2023
2025
2027
2030
2033
2036
2038
2063
2081
2090
2084
2067
2047
2032
2029
2040
2063
2066
2069
2073
2076
2077
2081
2083
2086
2089
2091
2094
2097
2100
2102
2105
2106
2108
2109
2111
2114
2116
2118
2119
2121
2122
2123
2124
2124
2124
2123
2121
2119
2117
2114
2110
2106
2101
2097
2090
2083
2076
2068
2060
2053
2044
2036
2028
2021
2013
2006
2000
1993
1986
1980
1975
1971
1966
1961
1957
1954
1951
1949
1948
1947
1946
1946
1946
1946
1946
1946
1946
1946
1946
1946
1944
1951
1970
1994
2011
2018
2010
1993
1971
1956
1952
1954
1956
1957
1958
1957
1957
1955
1953
1951
1949
1947
1944
1942
1941
1941
1941
1942
1943
1944
1945
1946
1948
1950
1951
1952
1952
1952
1952
1952
1952
1952
1954
1954
1955
1956
1957
1959
1959
1959
1958
1955
1952
1950
1947
1943
1940
1937
1935
1933
1931
1931
1931
1930
1931
1932
1933
1935
1936
1937
1937
1937
1936
1936
1935
1936
1936
1936
1936
1937
1940
1941
1944
1947
1949
1951
1935
1929
1937
1957
1981
2000
2006
1999
1978
1953
1951
1949
1947
1945
1942
1941
1940
1939
1938
1937
1938
1937
1935
1934
1933
1932
1930
1929
1929
1930
1929
1929
1930
1931
1933
1935
1938
1943
1949
1955
1963
1971
1980
1989
1996
2004
2012
2019
2025
2031
2038
2046
2056
2067
2079
2092
2104
2115
2124
2133
2140
2145
2148
2149
2148
2145
2140
2134
2128
2119
2109
2097
2082
2064
2044
2024
2003
1982
1963
1944
1927
1912
1900
1890
1883
1877
1850
1831
1823
1830
1849
1873
1891
1900
1893
1875
1873
1869
1862
1854
1843
1831
1821
1812
1806
1807
1814
1829
1856
1895
1950
2018
2102
2199
2312
2434
2557
2670
2760
2819
2843
2831
2780
2690
2563
2406
2231
2052
1882
1730
1601
1496
1415
1363
1334
1329
1341
1366
1401
1444
1492
1543
1595
1646
1694
1736
1772
1801
1823
1840
1851
1857
1861
1862
1862
1863
1864
1866
1868
1872
1876
1880
1883
1885
1889
1891
1893
1893
1895
1897
1899
1897
1884
1868
1854
1853
1864
1888
1916
1938
1949
1951
1951
1950
1950
1950
1950
1951
1953
1956
1959
1962
1965
1970
1973
1976
1978
1981
1983
1983
1983
1984
1983
1983
1984
1985
1986
1987
1988
1990
1992
1994
1997
1999
2001
2002
2005
2008
2011
2014
2016
2019
2021
2024
2028
2033
2037
2041
2046
2050
2055
2060
2064
2068
2071
2075
2078
2082
2085
2090
2094
2098
2103
2108
2112
2115
2119
2121
2122
2122
2122
2121
2118
2113
2107
2101
2112
2111
2096
2069
2036
2009
1993
1992
2003
2019
2014
2010
2005
2001
1998
1996
1993
1991
1990
1990
1989
1989
1991
1992
1993
1994
1996
1997
1998
2000
2002
2004
2006
2007
2009
2010
2012
2014
2017
2019
2021
2023
2026
2027
2029
2032
2034
2037
2038
2040
2041
2043
2044
2046
2049
2051
2053
2055
2058
2061
2065
2069
2074
2077
2079
2082
2083
2084
2085
2086
2085
2084
2084
2083
2083
2083
2082
2081
2081
2081
2081
2080
2079
2078
2076
2074
2095
2114
2122
2117
2100
2077
2058
2052
2060
2082
2085
2089
2091
2093
2095
2097
2098
2099
2100
2100
2099
2097
2096
2095
2094
2092
2092
2091
2090
2090
2090
2090
2091
2093
2096
2098
2101
2102
2105
2106
2107
2108
2110
2110
2110
2111
2110
2110
2111
2112
2113
2114
2115
2116
2116
2116
2117
2117
2117
2117
2118
2118
2118
2118
2119
2121
2123
2127
2132
2136
2140
2145
2151
2157
2164
2171
2178
2184
2191
2199
2209
2221
2234
2248
2262
2280
2310
2346
2377
2394
2394
2378
2352
2327
2311
2301
2290
2277
2261
2244
2226
2207
2187
2167
2147
2128
2110
2094
2080
2069
2060
2053
2049
2046
2044
2042
2041
2039
2039
2039
2040
2041
2041
2041
2039
2037
2033
2027
2018
2007
1996
1986
1977
1972
1972
1979
1994
2020
2061
2116
2183
2265
2362
2474
2598
2728
2850
2951
3021
3055
3050
3004
2916
2787
2624
2440
2249
2067
1902
1762
1650
1568
1516
1492
1492
1511
1544
1586
1636
1691
1733
1780
1839
1904
1969
2023
2060
2076
2074
2060
2062
2063
2064
2066
2068
2070
2072
2073
2075
2077
2078
2080
2081
2081
2081
2082
2083
2084
2085
2088
2091
2094
2097
2101
2104
2107
2111
2115
2118
2121
2124
2127
2129
2132
2134
2136
2139
2141
2143
2145
2147
2149
2150
2152
2154
2156
2158
2159
2161
2162
2163
2163
2164
2165
2166
2167
2169
2172
2175
2178
2181
2184
2188
2192
2195
2197
2199
2201
2202
2202
2203
2202
2202
2202
2202
2203
2188
2189
2207
2237
2269
2296
2304
2294
2271
2242
2237
2230
2221
2213
2204
2195
2186
2178
2170
2162
2153
2146
2138
2130
2121
2113
2106
2099
2092
2086
2081
2076
2072
2067
2063
2059
2057
2054
2052
2051
2051
2050
2049
2050
2052
2053
2055
2057
2059
2061
2062
2064
2066
2069
2071
2075
2078
2081
2085
2088
2091
2093
2095
2095
2096
2096
2097
2096
2094
2092
2090
2088
2087
2085
2085
2084
2082
2081
2082
2083
2084
2084
2084
2084
2084
2062
2048
2048
2060
2080
2098
2106
2101
2082
2054
2050
2047
2042
2037
2033
2029
2024
2021
2018
2016
2015
2014
2013
2012
2010
2009
2007
2006
2004
2002
2001
2001
2002
2003
2002
2003
2004
2005
2006
2007
2007
2007
2005
2005
2006
2005
2005
2003
2003
2002
2002
2000
1999
1997
1996
1995
1995
1994
1994
1994
1993
1992
1991
1989
1987
1985
1982
1981
1980
1977
1976
1975
1974
1974
1974
1974
1974
1973
1972
1971
1970
1968
1967
1965
1964
1952
1933
1916
1908
1916
1937
1968
1997
2019
2028
2035
2042
2049
2056
2062
2070
2079
2090
2101
2112
2122
2133
2142
2151
2160
2166
2172
2175
2175
2174
2170
2165
2158
2148
2134
2117
2099
2078
2057
2034
2012
1991
1970
1952
1936
1923
1910
1901
1893
1887
1884
1881
1878
1875
1873
1871
1870
1870
1871
1872
1874
1875
1876
1876
1874
1871
1864
1855
1844
1833
1823
1815
1811
1812
1822
1843
1878
1928
1994
2076
2176
2296
2431
2574
2711
2827
2830
2777
2677
2541
2380
2203
2016
1826
1637
1456
1371
1320
1303
1312
1343
1389
1445
1506
1570
1632
1689
1740
1783
1817
1843
1862
1876
1885
1889
1891
1893
1894
1895
1898
1901
1903
1905
1908
1911
1915
1917
1920
1923
1925
1928
1931
1934
1938
1941
1944
1948
1952
1955
1957
1960
1963
1964
1965
1967
1968
1969
1971
1973
1975
1977
1980
1983
1986
1989
1993
1997
2001
2005
2008
2012
2016
2020
2024
2028
2031
2034
2036
2039
2042
2044
2068
2086
2091
2081
2062
2043
2032
2033
2049
2074
2078
2081
2084
2087
2090
2093
2097
2100
2103
2106
2109
2111
2114
2116
2118
2120
2120
2122
2124
2125
2127
2129
2132
2135
2138
2141
2145
2147
2149
2151
2152
2151
2150
2148
2145
2140
2134
2128
2120
2112
2103
2094
2085
2075
2065
2057
2049
2041
2035
2029
2023
2017
2011
2006
2001
1996
1992
1988
1984
1980
1977
1975
1974
1972
1972
1971
1970
1969
1968
1966
1965
1965
1965
1966
1967
1980
2001
2025
2041
2047
2038
2019
1999
1986
1984
1985
1987
1989
1990
1989
1988
1988
1987
1987
1986
1986
1986
1985
1986
1987
1989
1991
1994
1997
1999
2002
2004
2006
2006
2006
2006
2005
2003
2000
1998
1995
1992
1990
1988
1985
1982
1979
1977
1975
1972
1970
1968
1965
1963
1962
1961
1960
1958
1957
1957
1957
1957
1957
1957
1957
1956
1955
1954
1952
1950
1948
1947
1946
1945
1946
1947
1948
1949
1949
1951
1952
1954
1954
1955
1954
1954
1949
1961
1981
2004
2018
2020
2008
1986
1963
1947
1947
1947
1947
1946
1946
1947
1947
1947
1947
1947
1948
1948
1948
1947
1947
1946
1945
1945
1946
1947
1948
1949
1950
1953
1957
1962
1967
1973
1979
1986
1993
2001
2008
2015
2021
2026
2032
2037
2043
2048
2056
2064
2074
2086
2099
2112
2123
2135
2145
2153
2159
2163
2165
2163
2160
2154
2148
2139
2130
2118
2103
2088
2070
2051
2030
2009
1988
1968
1949
1932
1917
1904
1894
1885
1879
1850
1830
1823
1831
1850
1872
1886
1889
1878
1856
1854
1852
1845
1836
1826
1814
1802
1792
1783
1779
1781
1791
1812
1846
1895
1959
2040
2137
2253
2384
2520
2650
2759
2836
2876
2876
2832
2742
2607
2436
2242
2040
1845
1671
1524
1407
1324
1275
1258
1268
1298
1343
1398
1457
1517
1576
1630
1679
1720
1752
1779
1798
1812
1822
1829
1834
1838
1842
1846
1849
1853
1857
1861
1866
1870
1874
1878
1881
1884
1887
1889
1890
1892
1892
1893
1884
1864
1843
1829
1828
1841
1865
1891
1910
1917
1921
1924
1927
1929
1932
1935
1937
1940
1943
1947
1949
1951
1954
1958
1960
1962
1964
1967
1969
1971
1975
1978
1982
1986
1989
1992
1997
2000
2004
2008
2011
2012
2014
2015
2017
2019
2020
2022
2024
2025
2027
2030
2032
2034
2035
2036
2037
2038
2040
2041
2043
2045
2046
2049
2052
2055
2059
2063
2067
2071
2074
2078
2082
2083
2085
2085
2084
2083
2080
2077
2072
2067
2061
2055
2048
2040
2033
2011
1980
1947
1922
1908
1911
1923
1938
1947
1942
1938
1935
1930
1926
1922
1917
1914
1911
1910
1911
1911
1912
1912
1913
1915
1916
1917
1919
1920
1920
1921
1921
1921
1921
1920
1921
1921
1921
1923
1924
1925
1926
1928
1929
1931
1933
1935
1938
1939
1940
1942
1944
1946
1948
1951
1951
1951
1952
1953
1955
1955
1957
1959
1960
1961
1964
1966
1967
1968
1969
1969
1968
1967
1966
1966
1965
1964
1963
1963
1962
1961
1959
1957
1955
1975
1989
1991
1978
1953
1930
1913
1910
1920
1941
1942
1942
1941
1941
1941
1940
1939
1938
1938
1938
1937
1936
1936
1936
1934
1934
1933
1933
1934
1933
1935
1937
1939
1942
1944
1945
1947
1947
1947
1948
1946
1946
1944
1943
1943
1943
1942
1944
1944
1945
1945
1945
1946
1946
1947
1947
1948
1947
1946
1946
1945
1945
1943
1943
1942
1941
1940
1942
1944
1947
1952
1959
1965
1972
1980
1988
1995
2002
2008
2015
2021
2028
2037
2047
2058
2086
2124
2164
2196
2215
2219
2210
2196
2187
2185
2181
2176
2170
2162
2154
2143
2130
2116
2100
2083
2064
2044
2023
2002
1983
1964
1948
1935
1924
1914
1907
1901
1897
1894
1892
1889
1887
1884
1880
1879
1878
1878
1878
1878
1876
1873
1867
1860
1852
1844
1836
1828
1824
1824
1831
1848
1877
1919
1974
2042
2124
2222
2334
2457
2581
2693
2781
2838
2860
2848
2798
2711
2588
2435
2264
2090
1927
1780
1656
1553
1474
1420
1389
1380
1389
1411
1453
1516
1594
1676
1750
1810
1850
1871
1883
1895
1902
1904
1905
1904
1904
1903
1903
1904
1906
1909
1912
1916
1920
1923
1927
1930
1935
1938
1941
1943
1945
1946
1947
1947
1946
1946
1944
1944
1945
1945
1947
1949
1953
1957
1963
1968
1973
1978
1981
1985
1989
1992
1994
1996
1998
2000
2003
2005
2008
2011
2012
2014
2015
2017
2018
2019
2020
2020
2020
2021
2023
2025
2027
2030
2033
2036
2040
2043
2047
2051
2056
2059
2063
2065
2066
2044
2030
2029
2042
2066
2095
2116
2125
2121
2106
2111
2115
2118
2121
2124
2126
2129
2132
2136
2139
2142
2144
2145
2145
2145
2142
2139
2134
2127
2119
2108
2098
2088
2078
2068
2060
2052
2044
2038
2033
2029
2025
2020
2016
2012
2009
2005
2001
1998
1995
1993
1991
1991
1990
1990
1990
1990
1992
1992
1993
1994
1995
1995
1997
1998
1999
2000
2002
2005
2008
2011
2015
2018
2020
2022
2024
2027
2028
2029
2031
2033
2035
2038
2042
2044
2038
2021
2003
1989
1987
1999
2023
2049
2070
2078
2082
2084
2084
2085
2085
2085
2084
2084
2082
2080
2079
2077
2075
2074
2073
2071
2070
2068
2066
2064
2061
2060
2058
2056
2054
2053
2051
2051
2051
2052
2053
2055
2057
2060
2062
2063
2066
2068
2070
2072
2072
2073
2074
2074
2074
2075
2076
2078
2079
2079
2081
2082
2083
2085
2086
2087
2088
2088
2090
2092
2094
2096
2098
2100
2103
2105
2107
2108
2109
2108
2109
2108
2109
2108
2107
2107
2113
2105
2086
2064
2048
2044
2054
2076
2102
2123
2127
2131
2135
2140
2146
2151
2156
2161
2166
2173
2179
2186
2194
2203
2212
2224
2237
2250
2263
2275
2287
2297
2306
2314
2318
2320
2320
2317
2312
2306
2298
2288
2277
2265
2250
2235
2218
2200
2181
2161
2141
2121
2104
2088
2076
2064
2055
2049
2045
2044
2042
2041
2041
2040
2040
2039
2039
2038
2038
2037
2036
2035
2032
2026
2018
2009
1999
1989
1981
1976
1976
1982
1997
2024
2065
2189
2326
2467
2600
2716
2809
2880
2932
2963
2970
2875
2740
2575
2391
2204
2029
1872
1740
1634
1556
1506
1484
1483
1499
1529
1569
1617
1669
1724
1779
1831
1877
1916
1949
1975
1994
2008
2019
2025
2030
2032
2035
2037
2039
2042
2044
2048
2051
2054
2056
2059
2061
2064
2066
2069
2071
2072
2074
2076
2078
2081
2084
2086
2090
2093
2097
2101
2105
2108
2110
2112
2114
2117
2119
2121
2122
2125
2128
2131
2134
2137
2139
2141
2142
2143
2154
2176
2202
2222
2231
2224
2206
2186
2171
2170
2172
2173
2175
2177
2178
2179
2181
2183
2185
2188
2190
2192
2194
2197
2198
2201
2203
2204
2206
2208
2209
2211
2213
2215
2217
2219
2221
2224
2226
2228
2230
2233
2235
2237
2239
2240
2242
2244
2245
2245
2243
2241
2238
2233
2228
2222
2215
2207
2197
2187
2177
2167
2157
2148
2139
2131
2122
2114
2108
2101
2094
2088
2082
2075
2069
2063
2058
2052
2048
2045
2043
2042
2041
2040
2040
2039
2034
2044
2065
2089
2107
2114
2106
2088
2066
2051
2054
2056
2058
2060
2062
2062
2063
2064
2064
2064
2063
2061
2061
2059
2058
2058
2058
2057
2056
2056
2057
2057
2057
2057
2058
2058
2058
2057
2056
2056
2055
2054
2052
2050
2049
2048
2046
2044
2041
2038
2035
2033
2031
2029
2026
2025
2023
2021
2020
2020
2019
2018
2017
2016
2014
2013
2011
2010
2008
2007
2006
2005
2005
2005
2005
2005
2006
2006
2007
2008
2009
2010
2011
2011
2011
1989
1972
1968
1978
1998
2022
2039
2046
2037
2018
2019
2019
2018
2018
2017
2016
2016
2015
2014
2014
2013
2013
2014
2015
2015
2015
2016
2016
2017
2017
2018
2017
2016
2016
2016
2015
2015
2015
2015
2015
2016
2016
2017
2019
2023
2028
2033
2039
2046
2053
2061
2068
2075
2083
2090
2096
2102
2109
2117
2126
2135
2147
2159
2170
2181
2191
2200
2209
2216
2221
2224
2224
2222
2218
2212
2206
2197
2187
2174
2160
2142
2123
2102
2080
2057
2025
1984
1942
1907
1884
1880
1889
1904
1915
1918
1915
1913
1909
1906
1904
1902
1900
1897
1894
1890
1885
1878
1869
1859
1848
1838
1830
1826
1827
1836
1855
1887
1933
1995
2072
2166
2279
2410
2553
2694
2818
2911
2965
2978
2947
2870
2747
2583
2388
2179
1974
1787
1625
1495
1397
1335
1306
1307
1332
1374
1428
1488
1552
1618
1679
1734
1781
1819
1848
1870
1886
1895
1902
1906
1908
1909
1911
1913
1916
1919
1923
1928
1933
1936
1942
1946
1957
1954
1937
1917
1900
1894
1901
1921
1944
1964
1965
1967
1969
1971
1974
1975
1977
1980
1983
1985
1988
1992
1994
1998
2002
2005
2010
2013
2017
2021
2025
2028
2031
2033
2035
2037
2039
2040
2042
2045
2047
2049
2050
2053
2055
2057
2060
2063
2066
2068
2071
2074
2077
2080
2084
2087
2090
2092
2094
2098
2101
2103
2105
2107
2108
2110
2111
2113
2115
2115
2116
2117
2118
2118
2118
2118
2119
2119
2119
2120
2120
2121
2121
2121
2120
2141
2156
2160
2149
2125
2095
2068
2052
2047
2056
2049
2041
2033
2025
2018
2011
2003
1996
1991
1986
1982
1979
1977
1975
1973
1971
1971
1971
1971
1970
1969
1967
1966
1964
1964
1962
1962
1960
1959
1958
1959
1959
1960
1961
1962
1964
1965
1967
1969
1972
1973
1975
1976
1977
1979
1980
1980
1981
1983
1984
1986
1988
1990
1992
1993
1995
1997
1998
1998
1998
1998
1997
1997
1996
1996
1996
1995
1995
1996
1996
1995
1996
1997
1997
1997
1998
2013
2033
2051
2057
2051
2032
2006
1984
1971
1971
1970
1968
1967
1966
1965
1963
1961
1959
1960
1960
1961
1961
1963
1964
1966
1967
1969
1972
1972
1972
1971
1971
1971
1970
1969
1970
1970
1970
1971
1972
1972
1973
1975
1975
1976
1975
1974
1973
1972
1971
1971
1970
1969
1969
1969
1970
1972
1974
1976
1977
1977
1978
1979
1980
1979
1979
1979
1978
1978
1977
1977
1977
1976
1976
1976
1975
1975
1975
1974
1974
1974
1975
1978
1982
1988
1987
2000
2027
2061
2093
2116
2126
2122
2110
2102
2112
2123
2134
2145
2156
2166
2175
2184
2191
2197
2200
2201
2200
2197
2193
2188
2182
2173
2161
2148
2132
2114
2095
2074
2052
2029
2006
1986
1967
1952
1939
1929
1921
1914
1910
1908
1906
1904
1904
1903
1902
1902
1902
1904
1905
1906
1907
1908
1906
1902
1895
1885
1875
1863
1853
1844
1840
1842
1852
1873
1908
1959
2025
2107
2207
2326
2461
2600
2733
2844
2922
2962
2960
2913
2820
2619
2399
2178
1972
1797
1656
1546
1462
1401
1363
1412
1471
1536
1602
1666
1725
1778
1821
1855
1881
1899
1912
1920
1925
1928
1929
1930
1931
1934
1937
1941
1945
1949
1954
1958
1962
1966
1970
1973
1978
1982
1985
1987
1990
1992
1994
1997
1998
2001
2002
2003
2004
2006
2008
2012
2015
2018
2022
2024
2028
2032
2035
2037
2040
2042
2043
2043
2043
2042
2041
2039
2039
2038
2038
2037
2038
2039
2040
2042
2045
2048
2049
2051
2053
2054
2053
2039
2018
2002
1995
2001
2021
2047
2071
2085
2088
2090
2094
2096
2099
2101
2104
2106
2108
2110
2111
2112
2111
2110
2110
2110
2110
2109
2109
2108
2108
2110
2112
2113
2114
2115
2115
2115
2114
2113
2109
2105
2100
2093
2086
2078
2070
2062
2053
2044
2036
2027
2019
2012
2005
1997
1990
1982
1976
1971
1966
1962
1959
1956
1953
1951
1949
1948
1947
1945
1944
1944
1944
1944
1943
1943
1944
1944
1944
1944
1944
1943
1942
1943
1942
1943
1955
1954
1940
1920
1902
1895
1900
1916
1941
1963
1964
1965
1966
1967
1968
1970
1971
1972
1973
1973
1973
1973
1974
1974
1975
1975
1976
1977
1977
1978
1977
1977
1976
1975
1973
1971
1969
1967
1966
1964
1963
1961
1959
1958
1957
1956
1954
1952
1951
1951
1950
1949
1950
1950
1950
1949
1948
1947
1946
1943
1941
1938
1935
1932
1930
1928
1927
1926
1926
1927
1929
1930
1932
1935
1937
1938
1938
1938
1938
1937
1937
1936
1933
1931
1930
1951
1972
1984
1981
1968
1946
1926
1918
1921
1937
1938
1938
1937
1936
1935
1935
1934
1933
1933
1933
1933
1934
1934
1934
1933
1933
1934
1934
1934
1933
1934
1934
1935
1935
1936
1937
1939
1941
1943
1947
1951
1957
1964
1973
1981
1990
1999
2008
2017
2026
2035
2044
2055
2067
2080
2092
2104
2115
2126
2136
2144
2151
2154
2155
2154
2151
2147
2141
2134
2126
2116
2104
2090
2073
2055
2037
2017
1996
1975
1955
1936
1920
1906
1895
1885
1879
1889
1909
1930
1941
1942
1928
1907
1887
1876
1877
1875
1871
1864
1855
1843
1831
1820
1810
1803
1800
1805
1818
1843
1882
1935
2002
2084
2181
2295
2421
2551
2673
2774
2843
2876
2870
2822
2731
2599
2433
2246
2054
1871
1709
1570
1459
1377
1324
1300
1298
1317
1349
1392
1443
1498
1554
1609
1661
1707
1748
1781
1806
1825
1837
1847
1853
1857
1860
1862
1864
1867
1869
1870
1872
1872
1874
1875
1878
1881
1884
1887
1890
1894
1897
1900
1889
1892
1909
1934
1961
1980
1985
1976
1959
1941
1945
1949
1952
1954
1956
1958
1960
1961
1963
1964
1965
1966
1968
1969
1971
1973
1975
1978
1981
1983
1985
1989
1992
1995
1998
2001
2005
2007
2009
2012
2014
2015
2017
2018
2020
2021
2023
2023
2025
2027
2029
2032
2035
2038
2042
2045
2050
2054
2060
2064
2068
2073
2076
2079
2084
2088
2092
2096
2101
2106
2110
2114
2118
2123
2125
2127
2129
2130
2131
2130
2127
2125
2121
2115
2110
2077
2043
2017
2003
2003
2013
2024
2027
2018
1995
1987
1981
1975
1969
1964
1959
1955
1952
1950
1948
1947
1946
1946
1946
1947
1948
1949
1950
1952
1954
1955
1956
1956
1957
1958
1959
1960
1960
1961
1961
1961
1962
1963
1963
1963
1963
1964
1965
1967
1970
1972
1974
1977
1980
1983
1985
1987
1988
1988
1987
1987
1986
1984
1983
1982
1982
1983
1984
1985
1987
1989
1990
1991
1992
1992
1992
1990
1989
1988
1987
1986
1986
1987
1987
1987
1989
1978
1956
1933
1917
1914
1925
1947
1970
1987
1989
1990
1993
1995
1997
2000
2003
2006
2009
2012
2015
2018
2020
2022
2024
2025
2026
2026
2026
2026
2026
2027
2028
2030
2030
2031
2033
2034
2036
2037
2037
2037
2038
2037
2038
2039
2039
2040
2041
2042
2044
2047
2050
2054
2056
2059
2060
2063
2066
2068
2069
2070
2070
2070
2070
2071
2072
2072
2071
2074
2077
2081
2087
2093
2099
2105
2114
2123
2133
2144
2154
2164
2175
2184
2194
2204
2234
2253
2256
2247
2235
2230
2237
2257
2286
2315
2314
2311
2308
2303
2296
2288
2277
2265
2251
2235
2217
2198
2178
2158
2138
2118
2101
2086
2074
2063
2057
2054
2051
2050
2049
2050
2050
2048
2048
2047
2047
2045
2045
2046
2046
2045
2042
2037
2030
2021
2012
2002
1995
1991
1991
2000
2018
2048
2093
2152
2227
2317
2423
2544
2671
2795
2901
2980
3024
3033
3002
2931
2818
2669
2497
2313
2133
1969
1826
1707
1614
1550
1513
1501
1508
1571
1646
1719
1784
1836
1875
1908
1944
1986
2036
2051
2060
2065
2068
2067
2067
2067
2068
2068
2069
2070
2073
2074
2077
2079
2082
2084
2087
2089
2091
2093
2094
2097
2100
2103
2107
2111
2115
2119
2122
2126
2131
2134
2137
2140
2142
2144
2145
2146
2149
2150
2152
2153
2155
2157
2159
2162
2164
2166
2166
2167
2168
2168
2170
2171
2173
2175
2178
2180
2183
2186
2189
2192
2192
2194
2194
2195
2196
2199
2200
2202
2204
2208
2212
2216
2214
2226
2250
2275
2296
2304
2298
2279
2258
2243
2246
2249
2252
2255
2257
2260
2262
2266
2269
2271
2273
2275
2276
2277
2277
2276
2273
2269
2263
2257
2250
2243
2234
2226
2216
2207
2197
2187
2178
2169
2159
2150
2140
2132
2124
2116
2109
2103
2096
2091
2088
2084
2081
2079
2077
2076
2076
2077
2078
2080
2081
2083
2084
2085
2087
2088
2089
2090
2091
2091
2092
2091
2092
2092
2093
2093
2095
2096
2097
2098
2099
2101
2103
2105
2106
2107
2088
2080
2088
2106
2129
2144
2149
2139
2118
2092
2092
2091
2090
2089
2086
2085
2083
2080
2078
2076
2074
2074
2072
2070
2068
2067
2066
2065
2063
2060
2058
2054
2052
2050
2049
2047
2045
2043
2041
2039
2037
2036
2035
2033
2031
2029
2030
2030
2030
2030
2030
2029
2028
2027
2027
2025
2024
2024
2022
2022
2022
2022
2023
2023
2022
2022
2021
2021
2020
2019
2018
2017
2015
2014
2013
2013
2014
2014
2014
2014
2014
2014
2015
2015
2014
1993
1967
1947
1938
1944
1961
1983
2001
2009
2003
2005
2007
2009
2011
2013
2015
2016
2016
2017
2017
2019
2022
2026
2031
2037
2043
2051
2059
2066
2073
2080
2086
2092
2098
2104
2110
2119
2129
2141
2154
2168
2181
2192
2204
2213
2221
2226
2229
2229
2226
2220
2213
2205
2195
2183
2170
2155
2138
2120
2101
2082
2061
2040
2021
2002
1985
1970
1958
1949
1940
1934
1930
1926
1924
1922
1920
1918
1917
1916
1915
1915
1915
1915
1915
1913
1910
1894
1866
1835
1810
1801
1812
1841
1887
1942
1999
2072
2159
2266
2390
2526
2665
2794
2895
2962
2989
2972
2908
2797
2643
2456
2251
2044
1850
1681
1542
1437
1366
1330
1325
1345
1382
1431
1489
1550
1612
1671
1727
1776
1817
1849
1873
1891
1903
1910
1914
1915
1916
1917
1919
1921
1924
1927
1932
1935
1939
1942
1945
1947
1948
1950
1951
1951
1951
1951
1951
1951
1952
1953
1954
1957
1960
1963
1966
1970
1974
1978
1982
1987
1990
1993
2016
2029
2026
2012
1993
1978
1974
1985
2008
2035
2038
2040
2044
2046
2048
2049
2050
2051
2052
2053
2055
2058
2061
2066
2068
2071
2073
2074
2077
2080
2083
2085
2087
2089
2091
2093
2095
2098
2099
2100
2101
2101
2102
2102
2103
2103
2104
2106
2108
2110
2112
2115
2118
2121
2126
2130
2134
2137
2140
2143
2147
2150
2152
2154
2154
2151
2147
2142
2134
2126
2117
2108
2097
2086
2076
2067
2058
2049
2041
2033
2024
2016
2009
2002
1995
2005
2024
2039
2044
2036
2016
1991
1969
1959
1962
1962
1961
1961
1963
1964
1965
1966
1967
1969
1970
1972
1974
1976
1978
1980
1982
1984
1985
1986
1987
1989
1990
1991
1992
1993
1994
1995
1997
1999
2001
2003
2004
2006
2007
2009
2011
2012
2013
2014
2015
2015
2015
2014
2013
2012
2011
2010
2009
2007
2005
2001
1998
1995
1992
1989
1986
1984
1980
1978
1975
1974
1971
1970
1969
1967
1966
1964
1963
1961
1960
1958
1958
1958
1958
1959
1948
1953
1971
1996
2019
2031
2031
2015
1994
1975
1978
1979
1979
1978
1977
1976
1973
1972
1971
1969
1966
1964
1962
1961
1960
1959
1958
1957
1956
1956
1956
1956
1956
1957
1958
1958
1958
1959
1959
1960
1960
1962
1963
1965
1965
1967
1967
1968
1970
1970
1970
1970
1969
1968
1969
1968
1969
1969
1970
1973
1978
1982
1989
1996
2004
2013
2024
2034
2044
2054
2064
2073
2081
2089
2098
2107
2117
2128
2140
2152
2164
2175
2187
2197
2206
2214
2193
2179
2176
2183
2195
2204
2200
2180
2143
2097
2077
2055
2033
2012
1991
1972
1955
1940
1928
1918
1911
1906
1903
1899
1896
1895
1892
1891
1891
1890
1889
1889
1889
1889
1888
1884
1880
1872
1862
1852
1841
1831
1824
1821
1825
1839
1863
1901
1954
2023
2108
2210
2331
2466
2607
2738
2848
2924
2959
2953
2901
2802
2658
2479
2277
2069
1872
1697
1552
1439
1360
1318
1308
1323
1358
1405
1462
1524
1587
1649
1706
1756
1799
1834
1859
1864
1855
1845
1840
1847
1866
1893
1918
1932
1935
1939
1942
1945
1947
1949
1950
1952
1953
1957
1960
1964
1967
1971
1974
1977
1980
1984
1988
1992
1996
2000
2004
2007
2011
2016
2018
2022
2024
2027
2029
2032
2035
2038
2040
2043
2046
2048
2050
2051
2053
2054
2056
2057
2059
2061
2062
2062
2064
2065
2066
2066
2066
2066
2065
2065
2066
2067
2069
2071
2074
2078
2082
2086
2090
2095
2099
2103
2108
2112
2115
2118
2121
2123
2125
2128
2142
2143
2131
2110
2091
2080
2083
2100
2126
2150
2153
2155
2156
2156
2155
2152
2150
2144
2138
2131
2124
2116
2108
2099
2090
2080
2069
2060
2049
2039
2029
2019
2011
2004
1997
1993
1989
1984
1982
1981
1980
1979
1978
1978
1976
1976
1975
1974
1974
1973
1972
1971
1970
1969
1969
1967
1966
1966
1965
1965
1965
1967
1968
1969
1970
1972
1973
1975
1977
1979
1980
1980
1982
1982
1983
1984
1986
1986
1988
1989
1990
1993
1995
1997
1999
2000
2021
2033
2033
2018
1995
1971
1955
1951
1962
1982
1980
1977
1974
1971
1968
1964
1961
1957
1953
1948
1945
1942
1938
1935
1932
1929
1926
1923
1922
1921
1921
1921
1922
1922
1924
1925
1927
1929
1930
1930
1931
1930
1930
1929
1927
1925
1922
1919
1917
1915
1913
1912
1911
1911
1912
1912
1913
1914
1914
1915
1915
1916
1918
1918
1921
1921
1923
1923
1924
1924
1925
1924
1924
1925
1924
1924
1924
1925
1925
1925
1925
1924
1924
1922
1923
1936
1958
1981
1996
1999
1987
1966
1945
1932
1930
1930
1930
1931
1933
1937
1942
1948
1954
1962
1969
1978
1986
1993
2001
2009
2017
2026
2035
2044
2053
2062
2073
2085
2097
2107
2116
2124
2131
2138
2144
2150
2153
2153
2151
2148
2143
2136
2128
2118
2104
2087
2068
2048
2028
2007
1986
1967
1949
1932
1918
1907
1897
1889
1884
1880
1877
1875
1872
1870
1867
1866
1864
1863
1862
1861
1861
1859
1857
1852
1846
1838
1828
1817
1806
1796
1794
1816
1864
1936
2025
2123
2228
2339
2455
2576
2694
2786
2848
2872
2860
2806
2710
2575
2409
2223
2034
1855
1695
1560
1451
1372
1323
1301
1303
1325
1361
1407
1460
1515
1573
1628
1678
1725
1762
1793
1817
1835
1849
1859
1865
1871
1875
1878
1882
1886
1890
1893
1895
1897
1900
1902
1903
1904
1906
1907
1909
1912
1915
1918
1922
1925
1929
1932
1935
1938
1940
1943
1945
1948
1951
1953
1956
1961
1966
1971
1976
1980
1984
1987
1990
1993
1973
1961
1960
1974
1997
2023
2039
2044
2034
2015
2017
2019
2020
2023
2025
2027
2030
2033
2036
2038
2040
2042
2044
2045
2047
2049
2051
2053
2055
2058
2060
2063
2064
2067
2068
2069
2071
2073
2075
2077
2079
2081
2084
2086
2090
2094
2098
2103
2108
2112
2116
2121
2125
2128
2129
2130
2129
2126
2122
2117
2110
2103
2095
2086
2079
2070
2062
2054
2048
2041
2034
2027
2020
2012
2003
1995
1988
1982
1975
1970
1965
1961
1957
1954
1953
1941
1920
1897
1884
1882
1895
1919
1945
1964
1971
1974
1975
1977
1977
1977
1976
1976
1975
1975
1974
1974
1974
1974
1974
1975
1977
1978
1980
1982
1984
1987
1989
1991
1993
1994
1994
1995
1995
1996
1995
1995
1994
1994
1995
1995
1996
1994
1994
1992
1991
1991
1990
1989
1987
1985
1983
1980
1976
1973
1969
1965
1961
1957
1954
1950
1947
1944
1942
1940
1939
1938
1937
1937
1937
1936
1936
1936
1937
1938
1940
1942
1945
1947
1949
1952
1971
1979
1972
1955
1935
1921
1918
1930
1952
1976
1976
1976
1976
1975
1975
1976
1978
1979
1981
1983
1985
1988
1991
1993
1995
1996
1997
1998
1998
1998
2000
2002
2005
2007
2011
2014
2017
2019
2021
2024
2025
2027
2029
2033
2036
2041
2046
2053
2061
2069
2076
2084
2092
2100
2108
2115
2124
2134
2145
2158
2173
2189
2205
2220
2233
2246
2256
2264
2271
2274
2275
2273
2269
2264
2258
2252
2244
2235
2225
2213
2198
2183
2165
2146
2126
2106
2110
2109
2097
2074
2044
2013
1992
1986
1995
2016
2017
2018
2019
2019
2019
2019
2019
2017
2013
2008
2002
1994
1987
1979
1974
1972
1974
1983
2002
2031
2074
2130
2199
2282
2378
2489
2610
2731
2842
2930
2986
3008
2993
2940
2848
2719
2562
2388
2211
2045
1897
1771
1670
1595
1547
1523
1519
1531
1557
1593
1635
1684
1735
1787
1839
1886
1929
1965
1994
2018
2035
2047
2055
2060
2062
2064
2066
2067
2067
2068
2069
2069
2070
2071
2073
2106
2138
2159
2162
2151
2132
2112
2105
2114
2139
2141
2143
2145
2147
2149
2151
2153
2154
2156
2158
2159
2161
2163
2165
2167
2169
2170
2172
2173
2175
2177
2178
2179
2180
2182
2185
2186
2188
2191
2193
2195
2198
2201
2205
2207
2209
2213
2216
2219
2222
2225
2228
2231
2235
2240
2244
2247
2251
2254
2258
2261
2265
2268
2271
2273
2276
2278
2280
2282
2284
2285
2285
2285
2283
2280
2276
2272
2266
2259
2251
2242
2234
2225
2217
2208
2217
2230
2237
2235
2218
2191
2159
2135
2121
2122
2119
2114
2111
2109
2107
2105
2104
2103
2103
2104
2104
2105
2106
2107
2108
2109
2111
2112
2113
2114
2114
2114
2114
2114
2114
2114
2113
2113
2113
2112
2112
2111
2111
2112
2112
2112
2113
2113
2114
2114
2115
2116
2116
2117
2116
2116
2115
2115
2115
2116
2115
2115
2115
2115
2115
2115
2114
2113
2111
2109
2107
2105
2102
2100
2097
2095
2091
2088
2085
2081
2078
2074
2071
2067
2064
2060
2064
2080
2100
2116
2121
2113
2092
2068
2049
2041
2042
2043
2043
2044
2044
2045
2045
2045
2045
2045
2043
2042
2042
2040
2040
2040
2041
2041
2042
2043
2045
2046
2048
2050
2050
2051
2052
2053
2053
2052
2051
2050
2048
2046
2045
2044
2043
2041
2040
2040
2039
2039
2040
2042
2044
2044
2047
2049
2053
2058
2064
2070
2076
2082
2088
2096
2102
2109
2115
2121
2126
2132
2139
2147
2156
2166
2176
2187
2198
2208
2217
2226
2234
2240
2244
2222
2207
2204
2210
2219
2221
2208
2179
2135
2085
2062
2040
2018
1998
1980
1964
1951
1941
1933
1927
1922
1919
1916
1916
1915
1916
1916
1918
1919
1919
1919
1918
1915
1910
1903
1893
1881
1868
1856
1845
1836
1832
1833
1842
1861
1894
1940
2001
2076
2169
2278
2405
2543
2682
2808
2905
2966
2985
2960
2888
2770
2610
2418
2209
2001
1808
1641
1506
1405
1341
1312
1313
1339
1382
1436
1498
1562
1627
1689
1745
1793
1832
1862
1884
1901
1896
1882
1869
1864
1873
1894
1921
1945
1960
1960
1963
1965
1966
1968
1969
1969
1968
1968
1968
1969
1970
1972
1974
1976
1979
1982
1986
1990
1993
1996
1999
2002
2005
2007
2009
2012
2013
2015
2017
2019
2022
2024
2026
2029
2032
2035
2039
2041
2043
2046
2048
2050
2051
2052
2052
2053
2053
2054
2056
2058
2060
2063
2066
2069
2073
2077
2080
2083
2085
2087
2088
2090
2091
2092
2091
2092
2092
2093
2093
2095
2096
2098
2100
2101
2104
2105
2103
2090
2070
2054
2048
2054
2075
2100
2122
2134
2134
2133
2131
2128
2122
2117
2110
2103
2095
2086
2078
2069
2060
2052
2044
2036
2027
2020
2014
2009
2003
1998
1992
1987
1983
1977
1971
1966
1961
1957
1952
1948
1945
1942
1940
1940
1940
1939
1939
1939
1939
1940
1941
1942
1943
1945
1946
1948
1951
1953
1955
1957
1959
1960
1960
1960
1960
1960
1961
1961
1963
1964
1965
1966
1968
1970
1972
1974
1975
1976
1978
1979
1981
1983
1985
2007
2019
2016
2001
1980
1961
1952
1956
1972
1995
1994
1993
1991
1988
1984
1981
1977
1973
1969
1965
1961
1959
1956
1955
1954
1953
1952
1953
1954
1956
1956
1956
1957
1958
1958
1959
1960
1960
1960
1960
1961
1962
1962
1962
1963
1963
1963
1963
1962
1960
1959
1956
1955
1954
1952
1951
1949
1948
1947
1947
1948
1949
1950
1951
1953
1954
1957
1959
1961
1963
1965
1967
1970
1971
1972
1973
1974
1975
1977
1977
1978
1978
1978
1978
1979
1998
2024
2048
2064
2068
2058
2043
2031
2029
2042
2051
2059
2066
2074
2083
2093
2105
2118
2131
2143
2155
2165
2176
2183
2189
2194
2194
2192
2186
2181
2174
2166
2156
2145
2132
2115
2098
2079
2058
2037
2015
1994
1974
1957
1942
1931
1923
1918
1915
1914
1913
1913
1913
1912
1911
1910
1908
1906
1905
1904
1903
1902
1899
1894
1888
1880
1869
1858
1847
1836
1827
1823
1826
1838
1861
1897
1949
2015
2098
2198
2318
2453
2595
2731
2845
2926
2886
2821
2727
2601
2435
2233
2004
1770
1553
1373
1322
1304
1313
1343
1389
1445
1508
1572
1635
1694
1746
1789
1824
1849
1867
1879
1885
1889
1890
1892
1894
1896
1898
1902
1906
1910
1914
1917
1921
1924
1927
1930
1933
1936
1939
1941
1944
1946
1948
1951
1953
1955
1958
1960
1963
1966
1968
1970
1973
1975
1977
1980
1982
1985
1989
1992
1997
2001
2004
2007
2010
2012
2015
2017
2019
2021
2023
2024
2027
2029
2031
2034
2037
2040
2043
2026
2019
2024
2044
2071
2096
2110
2111
2100
2081
2083
2086
2088
2092
2096
2100
2104
2109
2113
2116
2120
2122
2124
2125
2127
2127
2128
2129
2129
2129
2131
2133
2137
2141
2144
2149
2153
2155
2158
2158
2157
2155
2151
2146
2140
2134
2126
2118
2111
2103
2094
2085
2076
2066
2057
2047
2037
2029
2021
2014
2008
2002
1996
1991
1985
1982
1978
1973
1970
1967
1963
1961
1958
1956
1955
1953
1952
1951
1950
1950
1949
1948
1947
1946
1947
1932
1911
1892
1882
1885
1902
1928
1951
1966
1965
1966
1966
1966
1966
1966
1965
1964
1963
1962
1962
1962
1961
1961
1962
1962
1962
1963
1964
1965
1966
1966
1967
1967
1968
1968
1967
1965
1963
1960
1957
1954
1952
1949
1946
1942
1941
1940
1938
1937
1935
1935
1933
1932
1929
1927
1924
1920
1918
1917
1916
1914
1913
1913
1914
1915
1918
1920
1921
1921
1921
1921
1921
1920
1917
1916
1914
1912
1911
1911
1911
1913
1913
1915
1915
1915
1915
1914
1900
1878
1857
1843
1844
1857
1880
1902
1915
1916
1917
1917
1917
1917
1917
1917
1917
1918
1918
1918
1918
1918
1918
1918
1918
1918
1918
1919
1919
1920
1923
1925
1930
1934
1939
1944
1951
1956
1962
1967
1971
1976
1982
1988
1995
2002
2010
2020
2031
2044
2058
2072
2085
2098
2111
2122
2132
2140
2146
2150
2150
2149
2146
2141
2134
2125
2114
2100
2085
2068
2049
2028
2006
1984
1963
1942
1923
1908
1895
1884
1875
1868
1863
1858
1876
1887
1886
1870
1847
1824
1811
1811
1825
1846
1842
1836
1827
1817
1807
1797
1790
1788
1791
1803
1825
1860
1909
1973
2050
2143
2252
2375
2504
2627
2733
2808
2847
2849
2810
2731
2611
2456
2277
2090
1908
1744
1603
1489
1401
1342
1312
1307
1322
1350
1390
1437
1490
1545
1600
1651
1698
1737
1769
1795
1815
1829
1840
1849
1855
1861
1867
1874
1880
1885
1891
1897
1902
1906
1909
1912
1915
1916
1918
1920
1921
1922
1923
1923
1923
1938
1962
1987
2004
2010
2002
1986
1970
1963
1968
1973
1977
1980
1983
1983
1985
1985
1986
1986
1987
1988
1988
1989
1989
1990
1991
1993
1994
1996
1999
2000
2002
2005
2009
2013
2017
2020
2024
2027
2030
2033
2036
2038
2041
2044
2047
2050
2052
2054
2056
2060
2064
2068
2071
2076
2079
2081
2084
2086
2088
2089
2090
2091
2092
2094
2097
2101
2105
2109
2113
2116
2119
2121
2122
2122
2121
2120
2118
2114
2109
2102
2096
2090
2085
2079
2073
2061
2064
2077
2092
2100
2095
2076
2046
2016
1992
1987
1982
1978
1974
1970
1968
1966
1964
1964
1964
1965
1965
1966
1968
1970
1971
1974
1976
1977
1978
1978
1978
1978
1977
1975
1975
1976
1977
1980
1982
1985
1988
1991
1994
1997
1999
2000
2000
1999
1998
1996
1996
1997
1998
1999
2000
1999
2000
2000
2000
2001
2000
1998
1996
1995
1993
1992
1992
1990
1990
1987
1985
1983
1980
1977
1975
1972
1970
1967
1964
1960
1957
1954
1951
1947
1920
1900
1893
1900
1918
1940
1954
1958
1947
1926
1927
1929
1929
1930
1930
1931
1931
1932
1933
1934
1936
1938
1941
1943
1945
1946
1947
1948
1948
1949
1948
1947
1946
1945
1945
1945
1946
1946
1947
1948
1950
1952
1954
1955
1958
1960
1962
1964
1966
1967
1968
1968
1967
1968
1968
1968
1968
1969
1969
1971
1975
1980
1985
1991
1998
2005
2013
2020
2025
2031
2037
2042
2048
2055
2062
2072
2081
2093
2108
2123
2138
2153
2167
2180
2193
2192
2178
2159
2144
2139
2146
2162
2179
2189
2183
2171
2156
2140
2123
2104
2083
2063
2043
2025
2010
1997
1988
1981
1975
1972
1971
1970
1970
1970
1970
1970
1970
1973
1975
1978
1980
1982
1983
1982
1980
1976
1970
1962
1957
1952
1951
1955
1967
1987
2019
2063
2122
2194
2278
2378
2490
2612
2733
2843
2927
2979
2996
2977
2921
2828
2701
2547
2379
2210
2054
1917
1802
1707
1636
1587
1559
1550
1555
1572
1597
1631
1671
1719
1768
1817
1865
1914
1943
1955
1957
1960
1970
1988
2016
2045
2066
2068
2070
2072
2073
2074
2075
2076
2078
2079
2082
2085
2088
2090
2094
2098
2101
2106
2109
2113
2116
2119
2123
2126
2130
2133
2137
2140
2144
2148
2152
2156
2160
2164
2169
2174
2178
2181
2184
2187
2189
2191
2192
2192
2192
2192
2193
2194
2195
2196
2199
2202
2205
2207
2208
2211
2212
2214
2216
2218
2220
2220
2222
2224
2226
2228
2231
2234
2238
2242
2246
2250
2255
2260
2265
2269
2296
2317
2327
2322
2304
2283
2267
2263
2275
2299
2303
2305
2306
2307
2308
2308
2308
2306
2302
2298
2294
2288
2283
2277
2270
2264
2257
2250
2242
2235
2227
2220
2212
2203
2194
2185
2177
2170
2163
2157
2151
2148
2145
2144
2143
2142
2142
2142
2143
2144
2145
2144
2144
2145
2145
2145
2146
2146
2147
2148
2149
2151
2154
2156
2158
2160
2163
2165
2165
2165
2164
2163
2161
2160
2160
2159
2158
2159
2158
2159
2160
2161
2162
2163
2164
2172
2192
2214
2234
2242
2234
2214
2189
2170
2161
2160
2159
2158
2156
2153
2151
2147
2144
2141
2138
2134
2131
2127
2124
2120
2117
2114
2112
2110
2108
2107
2106
2104
2104
2103
2103
2102
2101
2100
2099
2098
2095
2093
2092
2091
2089
2088
2088
2088
2088
2088
2089
2090
2090
2090
2091
2092
2092
2092
2092
2092
2093
2093
2094
2094
2095
2094
2093
2092
2090
2089
2087
2085
2083
2082
2080
2080
2080
2081
2082
2084
2085
2086
2086
2087
2088
2079
2086
2107
2132
2154
2164
2161
2147
2128
2114
2123
2129
2136
2142
2147
2152
2158
2164
2172
2181
2191
2202
2213
2226
2237
2248
2258
2265
2270
2273
2271
2267
2262
2254
2245
2235
2224
2210
2194
2175
2156
2135
2113
2090
2068
2046
2026
2008
1994
1983
1973
1966
1962
1959
1956
1954
1952
1951
1949
1949
1950
1950
1950
1951
1949
1948
1945
1940
1933
1923
1912
1901
1893
1887
1886
1890
1902
1925
1961
2011
2075
2154
2249
2362
2491
2575
2631
2662
2669
2651
2601
2511
2379
2204
1992
1815
1665
1544
1455
1399
1376
1380
1405
1446
1498
1557
1620
1683
1743
1798
1844
1880
1909
1931
1946
1955
1960
1965
1967
1968
1969
1972
1974
1976
1977
1979
1982
1983
1983
1984
1984
1984
1985
1985
1986
1987
1988
1990
1992
1995
1996
1998
2000
2001
2003
2004
2007
2008
2011
2013
2017
2021
2024
2028
2032
2036
2040
2044
2046
2049
2051
2053
2056
2059
2061
2063
2064
2064
2067
2068
2064
2047
2025
2009
2005
2014
2036
2065
2090
2103
2106
2110
2112
2114
2116
2118
2120
2121
2122
2123
2126
2128
2131
2134
2135
2137
2138
2139
2140
2140
2141
2141
2142
2144
2146
2149
2153
2157
2161
2165
2169
2172
2173
2172
2171
2168
2163
2157
2151
2144
2137
2130
2122
2115
2106
2098
2090
2082
2073
2065
2055
2046
2038
2029
2020
2012
2004
1995
1988
1982
1975
1970
1966
1963
1961
1960
1960
1960
1961
1962
1965
1967
1969
1971
1973
1974
1985
1981
1965
1942
1924
1917
1923
1943
1968
1989
1990
1991
1992
1993
1993
1994
1995
1996
1998
1999
2000
2001
2003
2004
2006
2008
2011
2013
2015
2017
2018
2019
2018
2019
2018
2016
2014
2012
2011
2010
2009
2009
2011
2010
2010
2010
2010
2009
2008
2006
2002
2000
1995
1992
1990
1988
1985
1982
1979
1977
1975
1973
1971
1969
1967
1966
1964
1964
1963
1963
1963
1964
1965
1966
1967
1969
1969
1970
1970
1971
1971
1971
1971
1971
1971
1993
2013
2022
2016
1997
1972
1951
1941
1945
1962
1962
1961
1961
1961
1962
1963
1962
1962
1962
1962
1962
1962
1961
1960
1959
1958
1958
1958
1958
1957
1957
1957
1958
1958
1960
1961
1963
1965
1969
1974
1980
1987
1994
2002
2010
2018
2026
2033
2040
2047
2055
2062
2069
2078
2087
2097
2108
2120
2131
2141
2150
2159
2166
2172
2177
2179
2179
2176
2172
2166
2158
2148
2136
2122
2105
2087
2068
2048
2026
2004
1983
1963
1946
1930
1918
1911
1918
1934
1948
1954
1946
1926
1899
1877
1865
1865
1867
1867
1868
1866
1863
1858
1850
1841
1830
1819
1808
1801
1800
1806
1823
1854
1900
1960
2037
2133
2248
2381
2525
2665
2789
2882
2936
2948
2916
2837
2712
2546
2350
2141
1936
1750
1591
1464
1371
1312
1288
1292
1321
1366
1422
1483
1547
1610
1670
1724
1768
1805
1833
1853
1867
1875
1881
1884
1886
1887
1889
1891
1893
1895
1899
1902
1906
1909
1912
1915
1918
1921
1924
1928
1932
1926
1934
1956
1985
2011
2027
2028
2016
1997
1981
1985
1989
1992
1995
1999
2003
2008
2012
2016
2020
2025
2028
2032
2036
2038
2040
2042
2044
2046
2048
2048
2050
2052
2054
2056
2060
2064
2067
2070
2074
2079
2083
2086
2090
2094
2097
2099
2101
2101
2101
2102
2102
2102
2103
2103
2104
2107
2110
2114
2118
2121
2125
2128
2130
2131
2131
2132
2134
2134
2135
2136
2138
2140
2141
2144
2146
2147
2147
2147
2147
2145
2141
2137
2132
2125
2093
2063
2043
2037
2043
2056
2067
2068
2055
2029
2022
2015
2009
2002
1996
1991
1987
1983
1980
1977
1975
1972
1970
1969
1967
1967
1966
1966
1965
1965
1965
1965
1965
1965
1966
1967
1969
1970
1971
1973
1977
1980
1984
1987
1989
1990
1992
1993
1995
1996
1996
1996
1994
1994
1994
1995
1997
1999
2001
2003
2005
2008
2011
2014
2017
2019
2020
2021
2021
2022
2022
2022
2022
2021
2020
2019
2017
2016
2014
2013
2010
2008
2007
2005
2004
1998
1978
1952
1929
1914
1914
1927
1947
1965
1973
1972
1970
1968
1966
1964
1963
1961
1960
1959
1960
1959
1960
1961
1961
1960
1962
1963
1964
1965
1965
1966
1966
1967
1967
1968
1967
1967
1967
1966
1965
1964
1964
1964
1964
1964
1965
1966
1966
1967
1968
1970
1970
1970
1970
1971
1972
1973
1973
1973
1973
1973
1973
1974
1974
1974
1973
1972
1971
1971
1972
1971
1972
1974
1975
1977
1980
1984
1990
1997
2005
2014
2023
2032
2041
2051
2060
2083
2092
2086
2073
2064
2066
2082
2113
2150
2185
2196
2204
2212
2216
2218
2216
2211
2204
2194
2184
2171
2157
2140
2123
2104
2083
2061
2039
2017
1996
1976
1958
1942
1928
1918
1909
1903
1900
1898
1898
1897
1897
1898
1898
1898
1899
1899
1899
1899
1898
1896
1893
1887
1878
1868
1856
1843
1831
1821
1815
1814
1823
1841
1872
1918
1978
2055
2149
2262
2391
2531
2668
2787
2877
2930
2941
2911
2835
2713
2551
2360
2156
1955
1771
1612
1527
1477
1454
1450
1456
1475
1507
1557
1626
1710
1756
1792
1820
1840
1855
1866
1873
1877
1880
1884
1886
1889
1891
1895
1898
1901
1904
1909
1912
1914
1918
1922
1925
1929
1932
1935
1937
1937
1938
1938
1938
1939
1941
1942
1945
1948
1951
1955
1959
1964
1967
1970
1972
1975
1977
1979
1981
1983
1985
1988
1990
1992
1996
1998
2000
2001
2002
2004
2004
2006
2006
2007
2009
2011
2014
2016
2019
2021
2024
2025
2027
2029
2031
2033
2035
2038
2056
2083
2110
2127
2131
2119
2098
2077
2064
2064
2064
2064
2065
2066
2069
2073
2077
2081
2084
2088
2091
2095
2097
2099
2102
2102
2103
2102
2102
2099
2096
2092
2088
2082
2076
2069
2061
2053
2045
2037
2028
2019
2009
2000
1992
1985
1977
1970
1962
1955
1948
1941
1935
1930
1926
1922
1920
1918
1916
1917
1917
1918
1919
1921
1920
1920
1920
1918
1918
1917
1915
1914
1913
1913
1913
1914
1915
1918
1920
1922
1924
1927
1929
1931
1934
1920
1920
1934
1958
1983
2000
2004
1993
1973
1953
1956
1959
1962
1965
1967
1968
1968
1967
1965
1963
1960
1956
1954
1952
1950
1949
1949
1949
1949
1949
1948
1948
1948
1946
1943
1939
1934
1931
1927
1923
1920
1917
1914
1912
1912
1913
1915
1916
1919
1921
1924
1925
1928
1929
1930
1930
1930
1930
1928
1927
1926
1925
1924
1924
1924
1925
1926
1926
1927
1927
1927
1927
1926
1926
1925
1925
1926
1927
1928
1929
1929
1929
1928
1927
1927
1903
1879
1862
1859
1871
1893
1917
1933
1936
1924
1925
1926
1928
1929
1931
1934
1936
1937
1939
1942
1946
1949
1952
1956
1960
1965
1971
1978
1985
1992
1999
2008
2016
2025
2034
2044
2055
2067
2080
2095
2109
2121
2132
2142
2151
2160
2166
2171
2174
2174
2171
2167
2162
2155
2148
2137
2125
2111
2095
2078
2059
2038
2017
1995
1973
1952